"Delay (ms)","Autocorrelation (a.u.)"
0.000000000E0,2.505938503E-5
2.083767452E-2,2.501205221E-5
4.167534903E-2,2.491507713E-5
6.251302355E-2,2.476754615E-5
8.335069806E-2,2.456264177E-5
1.041883726E-1,2.429969201E-5
1.250260471E-1,2.399257578E-5
1.458637216E-1,2.364626190E-5
1.667013961E-1,2.325581327E-5
1.875390706E-1,2.282289984E-5
2.083767452E-1,2.235809073E-5
2.292144197E-1,2.186476646E-5
2.500520942E-1,2.134356818E-5
2.708897687E-1,2.080325118E-5
2.917274432E-1,2.025057901E-5
3.125651177E-1,1.968966920E-5
3.334027922E-1,1.912465495E-5
3.542404668E-1,1.855807123E-5
3.750781413E-1,1.799334495E-5
3.959158158E-1,1.743380323E-5
4.167534903E-1,1.688195182E-5
4.375911648E-1,1.633973458E-5
4.584288393E-1,1.580901884E-5
4.792665139E-1,1.529334567E-5
5.001041884E-1,1.479496507E-5
5.209418629E-1,1.431123319E-5
5.417795374E-1,1.384148563E-5
5.626172119E-1,1.338709605E-5
5.834548864E-1,1.294672437E-5
6.042925610E-1,1.251727075E-5
6.251302355E-1,1.209695946E-5
6.459679100E-1,1.168653524E-5
6.668055845E-1,1.128542201E-5
6.876432590E-1,1.089119487E-5
7.084809335E-1,1.050116755E-5
7.293186080E-1,1.011654981E-5
7.501562826E-1,9.735124061E-6
7.709939571E-1,9.353964021E-6
7.918316316E-1,8.970963331E-6
8.126693061E-1,8.588835966E-6
8.335069806E-1,8.204250847E-6
8.543446551E-1,7.816270013E-6
8.751823297E-1,7.425373621E-6
8.960200042E-1,7.033149955E-6
9.168576787E-1,6.638245643E-6
9.376953532E-1,6.240191669E-6
9.585330277E-1,5.839527324E-6
9.793707022E-1,5.438327774E-6
1.000208377E0,5.034515038E-6
1.021046051E0,4.631388753E-6
1.041883726E0,4.228805045E-6
1.062721400E0,3.827258060E-6
1.083559075E0,3.427938890E-6
1.104396749E0,3.033504204E-6
1.125234424E0,2.642346211E-6
1.146072098E0,2.255075041E-6
1.166909773E0,1.873716384E-6
1.187747447E0,1.500463363E-6
1.208585122E0,1.132897546E-6
1.229422796E0,7.717077147E-7
1.250260471E0,4.183998104E-7
1.271098145E0,7.334396190E-8
1.291935820E0,-2.651898770E-7
1.312773494E0,-5.971932505E-7
1.333611169E0,-9.203026452E-7
1.354448844E0,-1.236853419E-6
1.375286518E0,-1.548037931E-6
1.396124193E0,-1.852218390E-6
1.416961867E0,-2.148776887E-6
1.437799542E0,-2.440220661E-6
1.458637216E0,-2.726761479E-6
1.479474891E0,-3.006182639E-6
1.500312565E0,-3.281571428E-6
1.521150240E0,-3.552444552E-6
1.541987914E0,-3.818359890E-6
1.562825589E0,-4.080142333E-6
1.583663263E0,-4.336514110E-6
1.604500938E0,-4.586821653E-6
1.625338612E0,-4.830502947E-6
1.646176287E0,-5.069672485E-6
1.667013961E0,-5.302534999E-6
1.687851636E0,-5.527339484E-6
1.708689310E0,-5.745781201E-6
1.729526985E0,-5.958341607E-6
1.750364659E0,-6.161266393E-6
1.771202334E0,-6.354282969E-6
1.792040008E0,-6.537692045E-6
1.812877683E0,-6.711947141E-6
1.833715357E0,-6.873145579E-6
1.854553032E0,-7.023266433E-6
1.875390706E0,-7.161619478E-6
1.896228381E0,-7.288593361E-6
1.917066055E0,-7.403239223E-6
1.937903730E0,-7.506115677E-6
1.958741404E0,-7.596330997E-6
1.979579079E0,-7.675646722E-6
2.000416753E0,-7.742984406E-6
2.021254428E0,-7.799044750E-6
2.042092103E0,-7.844140047E-6
2.062929777E0,-7.879767758E-6
2.083767452E0,-7.905646406E-6
2.104605126E0,-7.922058141E-6
2.125442801E0,-7.929994256E-6
2.146280475E0,-7.929434266E-6
2.167118150E0,-7.921873451E-6
2.187955824E0,-7.907858196E-6
2.208793499E0,-7.886896295E-6
2.229631173E0,-7.863833011E-6
2.250468848E0,-7.835484188E-6
2.271306522E0,-7.805290613E-6
2.292144197E0,-7.772007620E-6
2.312981871E0,-7.737471050E-6
2.333819546E0,-7.701549582E-6
2.354657220E0,-7.666371435E-6
2.375494895E0,-7.630666504E-6
2.396332569E0,-7.596091350E-6
2.417170244E0,-7.562958663E-6
2.438007918E0,-7.531392270E-6
2.458845593E0,-7.500320423E-6
2.479683267E0,-7.472659766E-6
2.500520942E0,-7.446944658E-6
2.521358616E0,-7.423217747E-6
2.542196291E0,-7.402567514E-6
2.563033965E0,-7.386604292E-6
2.583871640E0,-7.373801456E-6
2.604709314E0,-7.365113871E-6
2.625546989E0,-7.361023391E-6
2.646384663E0,-7.362226724E-6
2.667222338E0,-7.366815786E-6
2.688060013E0,-7.376723188E-6
2.708897687E0,-7.393306253E-6
2.729735362E0,-7.415417335E-6
2.750573036E0,-7.443839481E-6
2.771410711E0,-7.480078399E-6
2.792248385E0,-7.523881232E-6
2.813086060E0,-7.573123283E-6
2.833923734E0,-7.629361184E-6
2.854761409E0,-7.693025254E-6
2.875599083E0,-7.762703110E-6
2.896436758E0,-7.836452856E-6
2.917274432E0,-7.916706147E-6
2.938112107E0,-8.004233577E-6
2.958949781E0,-8.096178884E-6
2.979787456E0,-8.192166345E-6
3.000625130E0,-8.292090151E-6
3.021462805E0,-8.395018114E-6
3.042300479E0,-8.499028492E-6
3.063138154E0,-8.603444256E-6
3.083975828E0,-8.706558577E-6
3.104813503E0,-8.808757883E-6
3.125651177E0,-8.907440689E-6
3.146488852E0,-9.001332647E-6
3.167326526E0,-9.090467132E-6
3.188164201E0,-9.172618283E-6
3.209001875E0,-9.245581178E-6
3.229839550E0,-9.309736244E-6
3.250677224E0,-9.362819877E-6
3.271514899E0,-9.404115247E-6
3.292352573E0,-9.433181779E-6
3.313190248E0,-9.448782647E-6
3.334027922E0,-9.450230523E-6
3.354865597E0,-9.437406238E-6
3.375703272E0,-9.408091934E-6
3.396540946E0,-9.364385824E-6
3.417378621E0,-9.305514612E-6
3.438216295E0,-9.230744122E-6
3.459053970E0,-9.141195353E-6
3.479891644E0,-9.036681639E-6
3.500729319E0,-8.917989898E-6
3.521566993E0,-8.787264389E-6
3.542404668E0,-8.642417429E-6
3.563242342E0,-8.486454542E-6
3.584080017E0,-8.319292255E-6
3.604917691E0,-8.144265961E-6
3.625755366E0,-7.959934522E-6
3.646593040E0,-7.767759868E-6
3.667430715E0,-7.569945375E-6
3.688268389E0,-7.367832697E-6
3.709106064E0,-7.160759742E-6
3.729943738E0,-6.950621204E-6
3.750781413E0,-6.740128630E-6
3.771619087E0,-6.528888813E-6
3.792456762E0,-6.316703429E-6
3.813294436E0,-6.105913584E-6
3.834132111E0,-5.897128691E-6
3.854969785E0,-5.690005173E-6
3.875807460E0,-5.483509642E-6
3.896645134E0,-5.280116277E-6
3.917482809E0,-5.081080705E-6
3.938320483E0,-4.883137548E-6
3.959158158E0,-4.686145294E-6
3.979995832E0,-4.492799516E-6
4.000833507E0,-4.301427503E-6
4.021671181E0,-4.110697334E-6
4.042508856E0,-3.919381684E-6
4.063346531E0,-3.728744787E-6
4.084184205E0,-3.537461712E-6
4.105021880E0,-3.345041387E-6
4.125859554E0,-3.151527595E-6
4.146697229E0,-2.957334780E-6
4.167534903E0,-2.760336248E-6
4.188372578E0,-2.562155075E-6
4.209210252E0,-2.362237528E-6
4.230047927E0,-2.159406013E-6
4.250885601E0,-1.954721462E-6
4.271723276E0,-1.749485707E-6
4.292560950E0,-1.543374229E-6
4.313398625E0,-1.335662161E-6
4.334236299E0,-1.128089617E-6
4.355073974E0,-9.215533234E-7
4.375911648E0,-7.152944917E-7
4.396749323E0,-5.109048122E-7
4.417586997E0,-3.087989996E-7
4.438424672E0,-1.121808192E-7
4.459262346E0,8.085569569E-8
4.480100021E0,2.687063673E-7
4.500937695E0,4.501747988E-7
4.521775370E0,6.243384953E-7
4.542613044E0,7.929339751E-7
4.563450719E0,9.551817944E-7
4.584288393E0,1.109962038E-6
4.605126068E0,1.258369341E-6
4.625963742E0,1.401201463E-6
4.646801417E0,1.537269285E-6
4.667639091E0,1.668200423E-6
4.688476766E0,1.794801709E-6
4.709314441E0,1.917637161E-6
4.730152115E0,2.036943809E-6
4.750989790E0,2.153398272E-6
4.771827464E0,2.270145128E-6
4.792665139E0,2.386823248E-6
4.813502813E0,2.502776645E-6
4.834340488E0,2.619903983E-6
4.855178162E0,2.740453484E-6
4.876015837E0,2.863740633E-6
4.896853511E0,2.989224347E-6
4.917691186E0,3.118896661E-6
4.938528860E0,3.253243032E-6
4.959366535E0,3.389929246E-6
4.980204209E0,3.529771569E-6
5.001041884E0,3.672010273E-6
5.021879558E0,3.816520689E-6
5.042717233E0,3.959440282E-6
5.063554907E0,4.101235813E-6
5.084392582E0,4.241675755E-6
5.105230256E0,4.377573295E-6
5.126067931E0,4.505101578E-6
5.146905605E0,4.625719883E-6
5.167743280E0,4.737171253E-6
5.188580954E0,4.835411050E-6
5.209418629E0,4.918390660E-6
5.230256303E0,4.986702747E-6
5.251093978E0,5.038109057E-6
5.271931652E0,5.068060618E-6
5.292769327E0,5.078132420E-6
5.313607001E0,5.066700329E-6
5.334444676E0,5.031664303E-6
5.355282350E0,4.973793298E-6
5.376120025E0,4.891388181E-6
5.396957700E0,4.785085551E-6
5.417795374E0,4.653864446E-6
5.438633049E0,4.499241518E-6
5.459470723E0,4.321903790E-6
5.480308398E0,4.120956854E-6
5.501146072E0,3.899852507E-6
5.521983747E0,3.660519124E-6
5.542821421E0,3.404365454E-6
5.563659096E0,3.129212622E-6
5.584496770E0,2.841781027E-6
5.605334445E0,2.542610112E-6
5.626172119E0,2.231349589E-6
5.647009794E0,1.910176119E-6
5.667847468E0,1.583887221E-6
5.688685143E0,1.253649265E-6
5.709522817E0,9.204006260E-7
5.730360492E0,5.863917714E-7
5.751198166E0,2.560218933E-7
5.772035841E0,-7.203593768E-8
5.792873515E0,-3.962633387E-7
5.813711190E0,-7.175305869E-7
5.834548864E0,-1.032883507E-6
5.855386539E0,-1.342539309E-6
5.876224213E0,-1.645857660E-6
5.897061888E0,-1.941740147E-6
5.917899562E0,-2.228074804E-6
5.938737237E0,-2.505818788E-6
5.959574911E0,-2.775726263E-6
5.980412586E0,-3.038316391E-6
6.001250260E0,-3.293323816E-6
6.022087935E0,-3.541915134E-6
6.042925610E0,-3.783568376E-6
6.063763284E0,-4.019137545E-6
6.084600959E0,-4.246990430E-6
6.105438633E0,-4.468212949E-6
6.126276308E0,-4.681269773E-6
6.147113982E0,-4.886528611E-6
6.167951657E0,-5.085383324E-6
6.188789331E0,-5.276582295E-6
6.209627006E0,-5.460334946E-6
6.230464680E0,-5.637234918E-6
6.251302355E0,-5.806736234E-6
6.272140029E0,-5.966905487E-6
6.292977704E0,-6.115828877E-6
6.313815378E0,-6.254249635E-6
6.334653053E0,-6.380536116E-6
6.355490727E0,-6.493592885E-6
6.376328402E0,-6.591676124E-6
6.397166076E0,-6.676324238E-6
6.418003751E0,-6.746371564E-6
6.438841425E0,-6.802116511E-6
6.459679100E0,-6.841050299E-6
6.480516774E0,-6.864226626E-6
6.501354449E0,-6.872054759E-6
6.522192123E0,-6.864209152E-6
6.543029798E0,-6.839765441E-6
6.563867472E0,-6.798784785E-6
6.584705147E0,-6.743128736E-6
6.605542821E0,-6.673103038E-6
6.626380496E0,-6.588184204E-6
6.647218170E0,-6.491790345E-6
6.668055845E0,-6.385167113E-6
6.688893519E0,-6.268375024E-6
6.709731194E0,-6.142851047E-6
6.730568869E0,-6.010627962E-6
6.751406543E0,-5.871896450E-6
6.772244218E0,-5.728612399E-6
6.793081892E0,-5.581726769E-6
6.813919567E0,-5.433201189E-6
6.834757241E0,-5.283770326E-6
6.855594916E0,-5.135330799E-6
6.876432590E0,-4.988604577E-6
6.897270265E0,-4.844706481E-6
6.918107939E0,-4.703869990E-6
6.938945614E0,-4.566254360E-6
6.959783288E0,-4.433566330E-6
6.980620963E0,-4.301962525E-6
7.001458637E0,-4.174107248E-6
7.022296312E0,-4.048863021E-6
7.043133986E0,-3.926310912E-6
7.063971661E0,-3.805912228E-6
7.084809335E0,-3.686452894E-6
7.105647010E0,-3.568572875E-6
7.126484684E0,-3.450503761E-6
7.147322359E0,-3.331345238E-6
7.168160033E0,-3.209623928E-6
7.188997708E0,-3.084946135E-6
7.209835382E0,-2.955953450E-6
7.230673057E0,-2.820689550E-6
7.251510731E0,-2.680005178E-6
7.272348406E0,-2.532249969E-6
7.293186080E0,-2.377855100E-6
7.314023755E0,-2.215600077E-6
7.334861429E0,-2.045331777E-6
7.355699104E0,-1.868009835E-6
7.376536778E0,-1.682205066E-6
7.397374453E0,-1.486446981E-6
7.418212128E0,-1.282680572E-6
7.439049802E0,-1.071336432E-6
7.459887477E0,-8.510481038E-7
7.480725151E0,-6.232458483E-7
7.501562826E0,-3.889372975E-7
7.522400500E0,-1.488809037E-7
7.543238175E0,9.596252956E-8
7.564075849E0,3.461816476E-7
7.584913524E0,5.996913286E-7
7.605751198E0,8.566998021E-7
7.626588873E0,1.116729911E-6
7.647426547E0,1.377519157E-6
7.668264222E0,1.638842367E-6
7.689101896E0,1.900483203E-6
7.709939571E0,2.159656112E-6
7.730777245E0,2.416619536E-6
7.751614920E0,2.671678003E-6
7.772452594E0,2.923615105E-6
7.793290269E0,3.172092896E-6
7.814127943E0,3.417533123E-6
7.834965618E0,3.659884676E-6
7.855803292E0,3.895960477E-6
7.876640967E0,4.125698350E-6
7.897478641E0,4.349008676E-6
7.918316316E0,4.566803457E-6
7.939153990E0,4.774667651E-6
7.959991665E0,4.974722984E-6
7.980829339E0,5.166780710E-6
8.001667014E0,5.350199543E-6
8.022504688E0,5.522775986E-6
8.043342363E0,5.685423231E-6
8.064180038E0,5.836952490E-6
8.085017712E0,5.976836081E-6
8.105855387E0,6.105026390E-6
8.126693061E0,6.220557319E-6
8.147530736E0,6.322714739E-6
8.168368410E0,6.412626024E-6
8.189206085E0,6.489662167E-6
8.210043759E0,6.552077314E-6
8.230881434E0,6.599540777E-6
8.251719108E0,6.633037557E-6
8.272556783E0,6.651920830E-6
8.293394457E0,6.655287184E-6
8.314232132E0,6.644245490E-6
8.335069806E0,6.620443680E-6
8.355907481E0,6.584196971E-6
8.376745155E0,6.534233088E-6
8.397582830E0,6.473627241E-6
8.418420504E0,6.403101590E-6
8.439258179E0,6.323592977E-6
8.460095853E0,6.235192132E-6
8.480933528E0,6.138131272E-6
8.501771202E0,6.036453996E-6
8.522608877E0,5.931480642E-6
8.543446551E0,5.822138466E-6
8.564284226E0,5.711161159E-6
8.585121900E0,5.600645199E-6
8.605959575E0,5.492012407E-6
8.626797249E0,5.384928360E-6
8.647634924E0,5.279540880E-6
8.668472598E0,5.181796167E-6
8.689310273E0,5.090303002E-6
8.710147947E0,5.004368977E-6
8.730985622E0,4.926777839E-6
8.751823297E0,4.861070711E-6
8.772660971E0,4.805262718E-6
8.793498646E0,4.759086649E-6
8.814336320E0,4.723191266E-6
8.835173995E0,4.699460735E-6
8.856011669E0,4.686275550E-6
8.876849344E0,4.683410860E-6
8.897687018E0,4.691062651E-6
8.918524693E0,4.709541477E-6
8.939362367E0,4.738030196E-6
8.960200042E0,4.776208118E-6
8.981037716E0,4.822076429E-6
9.001875391E0,4.876491779E-6
9.022713065E0,4.939254026E-6
9.043550740E0,5.007947382E-6
9.064388414E0,5.081028412E-6
9.085226089E0,5.159973304E-6
9.106063763E0,5.244129064E-6
9.126901438E0,5.331260640E-6
9.147739112E0,5.420809281E-6
9.168576787E0,5.513552892E-6
9.189414461E0,5.609305231E-6
9.210252136E0,5.705302180E-6
9.231089810E0,5.802051146E-6
9.251927485E0,5.898913163E-6
9.272765159E0,5.995927873E-6
9.293602834E0,6.093568954E-6
9.314440508E0,6.190866579E-6
9.335278183E0,6.288857121E-6
9.356115857E0,6.387878395E-6
9.376953532E0,6.486762144E-6
9.397791207E0,6.585953482E-6
9.418628881E0,6.685724221E-6
9.439466556E0,6.784402153E-6
9.460304230E0,6.882241103E-6
9.481141905E0,6.980240619E-6
9.501979579E0,7.076816021E-6
9.522817254E0,7.171864464E-6
9.543654928E0,7.265962305E-6
9.564492603E0,7.357417446E-6
9.585330277E0,7.446471190E-6
9.606167952E0,7.531904225E-6
9.627005626E0,7.613222194E-6
9.647843301E0,7.689226585E-6
9.668680975E0,7.759535477E-6
9.689518650E0,7.822299473E-6
9.710356324E0,7.878897654E-6
9.731193999E0,7.927482881E-6
9.752031673E0,7.965890493E-6
9.772869348E0,7.995408819E-6
9.793707022E0,8.015980510E-6
9.814544697E0,8.026051679E-6
9.835382371E0,8.024689320E-6
9.856220046E0,8.013607602E-6
9.877057720E0,7.993510226E-6
9.897895395E0,7.962851511E-6
9.918733069E0,7.920800066E-6
9.939570744E0,7.870655335E-6
9.960408418E0,7.811813947E-6
9.981246093E0,7.743636623E-6
1.000208377E1,7.669499610E-6
1.002292144E1,7.589730195E-6
1.004375912E1,7.505682411E-6
1.006459679E1,7.417929079E-6
1.008543447E1,7.329322657E-6
1.010627214E1,7.240459116E-6
1.012710981E1,7.152599686E-6
1.014794749E1,7.065384889E-6
1.016878516E1,6.981853634E-6
1.018962284E1,6.900885324E-6
1.021046051E1,6.824460641E-6
1.023129819E1,6.751557192E-6
1.025213586E1,6.683868206E-6
1.027297354E1,6.620203918E-6
1.029381121E1,6.561484395E-6
1.031464889E1,6.506874569E-6
1.033548656E1,6.454709621E-6
1.035632423E1,6.405414822E-6
1.037716191E1,6.357260067E-6
1.039799958E1,6.309566013E-6
1.041883726E1,6.261077211E-6
1.043967493E1,6.209457110E-6
1.046051261E1,6.153909364E-6
1.048135028E1,6.092289428E-6
1.050218796E1,6.023033269E-6
1.052302563E1,5.943468003E-6
1.054386330E1,5.852104641E-6
1.056470098E1,5.748698689E-6
1.058553865E1,5.630120975E-6
1.060637633E1,5.493566708E-6
1.062721400E1,5.339582327E-6
1.064805168E1,5.166776353E-6
1.066888935E1,4.972205906E-6
1.068972703E1,4.756584171E-6
1.071056470E1,4.521247983E-6
1.073140238E1,4.265036612E-6
1.075224005E1,3.987623041E-6
1.077307772E1,3.691378676E-6
1.079391540E1,3.375487975E-6
1.081475307E1,3.040414691E-6
1.083559075E1,2.687682711E-6
1.085642842E1,2.319194972E-6
1.087726610E1,1.935792069E-6
1.089810377E1,1.538029911E-6
1.091894145E1,1.129985702E-6
1.093977912E1,7.124463020E-7
1.096061680E1,2.873252169E-7
1.098145447E1,-1.431996185E-7
1.100229214E1,-5.765316209E-7
1.102312982E1,-1.010894723E-6
1.104396749E1,-1.445255816E-6
1.106480517E1,-1.876647057E-6
1.108564284E1,-2.304012621E-6
1.110648052E1,-2.725476337E-6
1.112731819E1,-3.139336235E-6
1.114815587E1,-3.544751943E-6
1.116899354E1,-3.940641826E-6
1.118983121E1,-4.325053079E-6
1.121066889E1,-4.697848043E-6
1.123150656E1,-5.059135473E-6
1.125234424E1,-5.407331450E-6
1.127318191E1,-5.742976712E-6
1.129401959E1,-6.066781139E-6
1.131485726E1,-6.378380005E-6
1.133569494E1,-6.677809564E-6
1.135653261E1,-6.964276780E-6
1.137737029E1,-7.239560941E-6
1.139820796E1,-7.503290871E-6
1.141904563E1,-7.754981365E-6
1.143988331E1,-7.996925398E-6
1.146072098E1,-8.229485987E-6
1.148155866E1,-8.451505780E-6
1.150239633E1,-8.663687883E-6
1.152323401E1,-8.867013246E-6
1.154407168E1,-9.060241378E-6
1.156490936E1,-9.244351315E-6
1.158574703E1,-9.418367325E-6
1.160658471E1,-9.582360191E-6
1.162742238E1,-9.735882851E-6
1.164826005E1,-9.879344919E-6
1.166909773E1,-1.001440292E-5
1.168993540E1,-1.013611043E-5
1.171077308E1,-1.024660149E-5
1.173161075E1,-1.034628295E-5
1.175244843E1,-1.043368243E-5
1.177328610E1,-1.050744144E-5
1.179412378E1,-1.056853772E-5
1.181496145E1,-1.061924406E-5
1.183579912E1,-1.065708483E-5
1.185663680E1,-1.068211827E-5
1.187747447E1,-1.069556539E-5
1.189831215E1,-1.069797292E-5
1.191914982E1,-1.068719638E-5
1.193998750E1,-1.066487841E-5
1.196082517E1,-1.063187670E-5
1.198166285E1,-1.058907551E-5
1.200250052E1,-1.053550306E-5
1.202333820E1,-1.047401271E-5
1.204417587E1,-1.040450286E-5
1.206501354E1,-1.032823210E-5
1.208585122E1,-1.024543859E-5
1.210668889E1,-1.015675478E-5
1.212752657E1,-1.006420691E-5
1.214836424E1,-9.967352756E-6
1.216920192E1,-9.866780822E-6
1.219003959E1,-9.763837170E-6
1.221087727E1,-9.660347173E-6
1.223171494E1,-9.556355319E-6
1.225255262E1,-9.451878274E-6
1.227339029E1,-9.348372060E-6
1.229422796E1,-9.245380998E-6
1.231506564E1,-9.142501639E-6
1.233590331E1,-9.039562318E-6
1.235674099E1,-8.936904571E-6
1.237757866E1,-8.834397072E-6
1.239841634E1,-8.731790764E-6
1.241925401E1,-8.629403475E-6
1.244009169E1,-8.527167335E-6
1.246092936E1,-8.424863694E-6
1.248176703E1,-8.322865168E-6
1.250260471E1,-8.219225510E-6
1.252344238E1,-8.113986796E-6
1.254428006E1,-8.006562648E-6
1.256511773E1,-7.897247741E-6
1.258595541E1,-7.783685117E-6
1.260679308E1,-7.667054374E-6
1.262763076E1,-7.546854569E-6
1.264846843E1,-7.425068178E-6
1.266930611E1,-7.297884129E-6
1.269014378E1,-7.167524089E-6
1.271098145E1,-7.033940885E-6
1.273181913E1,-6.897044612E-6
1.275265680E1,-6.755013170E-6
1.277349448E1,-6.609408135E-6
1.279433215E1,-6.461928733E-6
1.281516983E1,-6.310326651E-6
1.283600750E1,-6.156210720E-6
1.285684518E1,-5.999849426E-6
1.287768285E1,-5.843228737E-6
1.289852053E1,-5.684506760E-6
1.291935820E1,-5.525229142E-6
1.294019587E1,-5.367755102E-6
1.296103355E1,-5.211232185E-6
1.298187122E1,-5.054924845E-6
1.300270890E1,-4.901567437E-6
1.302354657E1,-4.751399650E-6
1.304438425E1,-4.604329620E-6
1.306522192E1,-4.460077698E-6
1.308605960E1,-4.319656258E-6
1.310689727E1,-4.184736219E-6
1.312773494E1,-4.053716849E-6
1.314857262E1,-3.928282877E-6
1.316941029E1,-3.808450612E-6
1.319024797E1,-3.694550172E-6
1.321108564E1,-3.583668014E-6
1.323192332E1,-3.477745653E-6
1.325276099E1,-3.376010337E-6
1.327359867E1,-3.277516534E-6
1.329443634E1,-3.182854197E-6
1.331527402E1,-3.092179182E-6
1.333611169E1,-3.005825252E-6
1.335694936E1,-2.923308253E-6
1.337778704E1,-2.844009178E-6
1.339862471E1,-2.767260251E-6
1.341946239E1,-2.693085276E-6
1.344030006E1,-2.620025582E-6
1.346113774E1,-2.548647627E-6
1.348197541E1,-2.479947639E-6
1.350281309E1,-2.413218965E-6
1.352365076E1,-2.349186370E-6
1.354448844E1,-2.286932824E-6
1.356532611E1,-2.228377702E-6
1.358616378E1,-2.172289025E-6
1.360700146E1,-2.117235549E-6
1.362783913E1,-2.063984466E-6
1.364867681E1,-2.013679158E-6
1.366951448E1,-1.966412328E-6
1.369035216E1,-1.922064114E-6
1.371118983E1,-1.881864077E-6
1.373202751E1,-1.845393529E-6
1.375286518E1,-1.814415462E-6
1.377370285E1,-1.784886577E-6
1.379454053E1,-1.758043985E-6
1.381537820E1,-1.734549462E-6
1.383621588E1,-1.712930317E-6
1.385705355E1,-1.691966943E-6
1.387789123E1,-1.673155023E-6
1.389872890E1,-1.655345769E-6
1.391956658E1,-1.638652378E-6
1.394040425E1,-1.621763559E-6
1.396124193E1,-1.603792045E-6
1.398207960E1,-1.583767157E-6
1.400291727E1,-1.560276656E-6
