"Delay (ms)","Autocorrelation (a.u.)"
0.000000000E0,2.009192858E-7
2.083767452E-2,2.005063170E-7
4.167534903E-2,1.999194152E-7
6.251302355E-2,1.993517159E-7
8.335069806E-2,1.985268464E-7
1.041883726E-1,1.978000855E-7
1.250260471E-1,1.971904192E-7
1.458637216E-1,1.965785783E-7
1.667013961E-1,1.958356566E-7
1.875390706E-1,1.950132984E-7
2.083767452E-1,1.942204921E-7
2.292144197E-1,1.933306944E-7
2.500520942E-1,1.924052969E-7
2.708897687E-1,1.915077710E-7
2.917274432E-1,1.906214542E-7
3.125651177E-1,1.897124271E-7
3.334027922E-1,1.887725009E-7
3.542404668E-1,1.878682303E-7
3.750781413E-1,1.869834635E-7
3.959158158E-1,1.860899791E-7
4.167534903E-1,1.852297138E-7
4.375911648E-1,1.844318285E-7
4.584288393E-1,1.836482786E-7
4.792665139E-1,1.828944610E-7
5.001041884E-1,1.822075527E-7
5.209418629E-1,1.815588604E-7
5.417795374E-1,1.809442333E-7
5.626172119E-1,1.803622654E-7
5.834548864E-1,1.798185669E-7
6.042925610E-1,1.792980115E-7
6.251302355E-1,1.787743330E-7
6.459679100E-1,1.782404565E-7
6.668055845E-1,1.777155340E-7
6.876432590E-1,1.772001972E-7
7.084809335E-1,1.766795043E-7
7.293186080E-1,1.761995506E-7
7.501562826E-1,1.757304266E-7
7.709939571E-1,1.752382219E-7
7.918316316E-1,1.747397974E-7
8.126693061E-1,1.742049659E-7
8.335069806E-1,1.736310887E-7
8.543446551E-1,1.730185970E-7
8.751823297E-1,1.723750846E-7
8.960200042E-1,1.716892559E-7
9.168576787E-1,1.709534179E-7
9.376953532E-1,1.701922628E-7
9.585330277E-1,1.693822714E-7
9.793707022E-1,1.685262991E-7
1.000208377E0,1.676442198E-7
1.021046051E0,1.667407197E-7
1.041883726E0,1.658163701E-7
1.062721400E0,1.648581900E-7
1.083559075E0,1.638577666E-7
1.104396749E0,1.628031928E-7
1.125234424E0,1.616956180E-7
1.146072098E0,1.605278734E-7
1.166909773E0,1.593250642E-7
1.187747447E0,1.581060561E-7
1.208585122E0,1.568402483E-7
1.229422796E0,1.555517302E-7
1.250260471E0,1.542477511E-7
1.271098145E0,1.529105300E-7
1.291935820E0,1.515595210E-7
1.312773494E0,1.501968221E-7
1.333611169E0,1.488232804E-7
1.354448844E0,1.474471438E-7
1.375286518E0,1.460682801E-7
1.396124193E0,1.446893674E-7
1.416961867E0,1.433144150E-7
1.437799542E0,1.419395404E-7
1.458637216E0,1.405782923E-7
1.479474891E0,1.392393137E-7
1.500312565E0,1.379193945E-7
1.521150240E0,1.366404361E-7
1.541987914E0,1.353830802E-7
1.562825589E0,1.341378055E-7
1.583663263E0,1.329247701E-7
1.604500938E0,1.317190564E-7
1.625338612E0,1.305227239E-7
1.646176287E0,1.293438791E-7
1.667013961E0,1.281732042E-7
1.687851636E0,1.270118591E-7
1.708689310E0,1.258504664E-7
1.729526985E0,1.246972626E-7
1.750364659E0,1.235459828E-7
1.771202334E0,1.223895720E-7
1.792040008E0,1.212660212E-7
1.812877683E0,1.201711554E-7
1.833715357E0,1.190777295E-7
1.854553032E0,1.180023027E-7
1.875390706E0,1.169294758E-7
1.896228381E0,1.158357459E-7
1.917066055E0,1.147267944E-7
1.937903730E0,1.136001469E-7
1.958741404E0,1.124781340E-7
1.979579079E0,1.113537759E-7
2.000416753E0,1.102212208E-7
2.021254428E0,1.091107190E-7
2.042092103E0,1.079805241E-7
2.062929777E0,1.068238134E-7
2.083767452E0,1.056710794E-7
2.104605126E0,1.045035232E-7
2.125442801E0,1.033336224E-7
2.146280475E0,1.021658137E-7
2.167118150E0,1.009977262E-7
2.187955824E0,9.982681239E-8
2.208793499E0,9.864261842E-8
2.229631173E0,9.747245318E-8
2.250468848E0,9.630998935E-8
2.271306522E0,9.514101086E-8
2.292144197E0,9.396925696E-8
2.312981871E0,9.278596848E-8
2.333819546E0,9.159687452E-8
2.354657220E0,9.039232329E-8
2.375494895E0,8.918125728E-8
2.396332569E0,8.797535677E-8
2.417170244E0,8.675640233E-8
2.438007918E0,8.553506046E-8
2.458845593E0,8.430319137E-8
2.479683267E0,8.305632329E-8
2.500520942E0,8.181628125E-8
2.521358616E0,8.057076757E-8
2.542196291E0,7.932478791E-8
2.563033965E0,7.808328261E-8
2.583871640E0,7.683317307E-8
2.604709314E0,7.558420938E-8
2.625546989E0,7.435032911E-8
2.646384663E0,7.314987481E-8
2.667222338E0,7.197449951E-8
2.688060013E0,7.082159553E-8
2.708897687E0,6.970015777E-8
2.729735362E0,6.857248006E-8
2.750573036E0,6.744061067E-8
2.771410711E0,6.631872026E-8
2.792248385E0,6.519152053E-8
2.813086060E0,6.407436923E-8
2.833923734E0,6.297622368E-8
2.854761409E0,6.190200499E-8
2.875599083E0,6.084956732E-8
2.896436758E0,5.982514639E-8
2.917274432E0,5.883403683E-8
2.938112107E0,5.785620828E-8
2.958949781E0,5.690218177E-8
2.979787456E0,5.595909184E-8
3.000625130E0,5.502107044E-8
3.021462805E0,5.410183636E-8
3.042300479E0,5.317823400E-8
3.063138154E0,5.224707996E-8
3.083975828E0,5.130972944E-8
3.104813503E0,5.037605784E-8
3.125651177E0,4.943175955E-8
3.146488852E0,4.847479741E-8
3.167326526E0,4.753537979E-8
3.188164201E0,4.656204092E-8
3.209001875E0,4.555888646E-8
3.229839550E0,4.455690717E-8
3.250677224E0,4.353773802E-8
3.271514899E0,4.252890363E-8
3.292352573E0,4.152114944E-8
3.313190248E0,4.052514552E-8
3.334027922E0,3.954371621E-8
3.354865597E0,3.852422651E-8
3.375703272E0,3.750485231E-8
3.396540946E0,3.650560077E-8
3.417378621E0,3.548850200E-8
3.438216295E0,3.449408768E-8
3.459053970E0,3.354728393E-8
3.479891644E0,3.259431585E-8
3.500729319E0,3.165027497E-8
3.521566993E0,3.073472491E-8
3.542404668E0,2.980823487E-8
3.563242342E0,2.889851915E-8
3.584080017E0,2.800898218E-8
3.604917691E0,2.711557732E-8
3.625755366E0,2.623997424E-8
3.646593040E0,2.538602674E-8
3.667430715E0,2.454299142E-8
3.688268389E0,2.369946099E-8
3.709106064E0,2.287295698E-8
3.729943738E0,2.205987372E-8
3.750781413E0,2.125123984E-8
3.771619087E0,2.047653250E-8
3.792456762E0,1.971728434E-8
3.813294436E0,1.896437470E-8
3.834132111E0,1.823002042E-8
3.854969785E0,1.749819975E-8
3.875807460E0,1.676461735E-8
3.896645134E0,1.603233271E-8
3.917482809E0,1.529916010E-8
3.938320483E0,1.456933976E-8
3.959158158E0,1.385842736E-8
3.979995832E0,1.314685599E-8
4.000833507E0,1.241483462E-8
4.021671181E0,1.168511489E-8
4.042508856E0,1.094753162E-8
4.063346531E0,1.019683408E-8
4.084184205E0,9.452108378E-9
4.105021880E0,8.695297578E-9
4.125859554E0,7.922869053E-9
4.146697229E0,7.142548585E-9
4.167534903E0,6.335942249E-9
4.188372578E0,5.516905236E-9
4.209210252E0,4.698941789E-9
4.230047927E0,3.860295372E-9
4.250885601E0,3.023569321E-9
4.271723276E0,2.201120005E-9
4.292560950E0,1.354220874E-9
4.313398625E0,5.062614144E-10
4.334236299E0,-3.274538664E-10
4.355073974E0,-1.187954593E-9
4.375911648E0,-2.051222037E-9
4.396749323E0,-2.906490993E-9
4.417586997E0,-3.791449711E-9
4.438424672E0,-4.687233073E-9
4.459262346E0,-5.578199962E-9
4.480100021E0,-6.470953432E-9
4.500937695E0,-7.343233041E-9
4.521775370E0,-8.190524974E-9
4.542613044E0,-9.028640334E-9
4.563450719E0,-9.845185172E-9
4.584288393E0,-1.064537009E-8
4.605126068E0,-1.145905666E-8
4.625963742E0,-1.224904410E-8
4.646801417E0,-1.299520362E-8
4.667639091E0,-1.374100934E-8
4.688476766E0,-1.447420530E-8
4.709314441E0,-1.517945520E-8
4.730152115E0,-1.589103404E-8
4.750989790E0,-1.662690978E-8
4.771827464E0,-1.735685833E-8
4.792665139E0,-1.807429249E-8
4.813502813E0,-1.879464704E-8
4.834340488E0,-1.947718336E-8
4.855178162E0,-2.013399890E-8
4.876015837E0,-2.078377456E-8
4.896853511E0,-2.140856922E-8
4.917691186E0,-2.204269449E-8
4.938528860E0,-2.267556597E-8
4.959366535E0,-2.330303537E-8
4.980204209E0,-2.393690315E-8
5.001041884E0,-2.455006687E-8
5.021879558E0,-2.515652449E-8
5.042717233E0,-2.575428438E-8
5.063554907E0,-2.633721038E-8
5.084392582E0,-2.692501849E-8
5.105230256E0,-2.752391344E-8
5.126067931E0,-2.814561322E-8
5.146905605E0,-2.877519293E-8
5.167743280E0,-2.941029979E-8
5.188580954E0,-3.006279455E-8
5.209418629E0,-3.070002474E-8
5.230256303E0,-3.132798567E-8
5.251093978E0,-3.196294208E-8
5.271931652E0,-3.259372722E-8
5.292769327E0,-3.324769625E-8
5.313607001E0,-3.392294965E-8
5.334444676E0,-3.461345058E-8
5.355282350E0,-3.532942846E-8
5.376120025E0,-3.602813560E-8
5.396957700E0,-3.671225340E-8
5.417795374E0,-3.739770194E-8
5.438633049E0,-3.806139404E-8
5.459470723E0,-3.872843287E-8
5.480308398E0,-3.941621309E-8
5.501146072E0,-4.012063359E-8
5.521983747E0,-4.084190784E-8
5.542821421E0,-4.157860815E-8
5.563659096E0,-4.233065149E-8
5.584496770E0,-4.307688423E-8
5.605334445E0,-4.381956446E-8
5.626172119E0,-4.457260072E-8
5.647009794E0,-4.534182337E-8
5.667847468E0,-4.612247953E-8
5.688685143E0,-4.690448646E-8
5.709522817E0,-4.769736739E-8
5.730360492E0,-4.848106941E-8
5.751198166E0,-4.924995180E-8
5.772035841E0,-5.001922982E-8
5.792873515E0,-5.078914971E-8
5.813711190E0,-5.154357571E-8
5.834548864E0,-5.226045098E-8
5.855386539E0,-5.297963647E-8
5.876224213E0,-5.369291723E-8
5.897061888E0,-5.436973839E-8
5.917899562E0,-5.505104953E-8
5.938737237E0,-5.573206177E-8
5.959574911E0,-5.639320310E-8
5.980412586E0,-5.702414634E-8
6.001250260E0,-5.762711239E-8
6.022087935E0,-5.821462048E-8
6.042925610E0,-5.876291212E-8
6.063763284E0,-5.928790554E-8
6.084600959E0,-5.980360072E-8
6.105438633E0,-6.028579847E-8
6.126276308E0,-6.073499602E-8
6.147113982E0,-6.116215736E-8
6.167951657E0,-6.157818563E-8
6.188789331E0,-6.198371112E-8
6.209627006E0,-6.238556689E-8
6.230464680E0,-6.280609338E-8
6.251302355E0,-6.323398423E-8
6.272140029E0,-6.364182200E-8
6.292977704E0,-6.403946728E-8
6.313815378E0,-6.443006403E-8
6.334653053E0,-6.479882083E-8
6.355490727E0,-6.515401466E-8
6.376328402E0,-6.551732856E-8
6.397166076E0,-6.591335579E-8
6.418003751E0,-6.632097501E-8
6.438841425E0,-6.674365723E-8
6.459679100E0,-6.721819867E-8
6.480516774E0,-6.769237158E-8
6.501354449E0,-6.815606783E-8
6.522192123E0,-6.864807399E-8
6.543029798E0,-6.915324468E-8
6.563867472E0,-6.966041549E-8
6.584705147E0,-7.017890621E-8
6.605542821E0,-7.073846257E-8
6.626380496E0,-7.129923740E-8
6.647218170E0,-7.182989436E-8
6.668055845E0,-7.238631604E-8
6.688893519E0,-7.293461041E-8
6.709731194E0,-7.345470953E-8
6.730568869E0,-7.400209200E-8
6.751406543E0,-7.456997012E-8
6.772244218E0,-7.512931179E-8
6.793081892E0,-7.566722482E-8
6.813919567E0,-7.620045149E-8
6.834757241E0,-7.672356776E-8
6.855594916E0,-7.721249146E-8
6.876432590E0,-7.770031311E-8
6.897270265E0,-7.818032837E-8
6.918107939E0,-7.861815672E-8
6.938945614E0,-7.901942244E-8
6.959783288E0,-7.938902471E-8
6.980620963E0,-7.973512442E-8
7.001458637E0,-8.004982910E-8
7.022296312E0,-8.034088989E-8
7.043133986E0,-8.062130238E-8
7.063971661E0,-8.085502491E-8
7.084809335E0,-8.104935120E-8
7.105647010E0,-8.121894054E-8
7.126484684E0,-8.133528477E-8
7.147322359E0,-8.142823219E-8
7.168160033E0,-8.150872242E-8
7.188997708E0,-8.155144722E-8
7.209835382E0,-8.158792980E-8
7.230673057E0,-8.161189684E-8
7.251510731E0,-8.160017312E-8
7.272348406E0,-8.158751321E-8
7.293186080E0,-8.158430270E-8
7.314023755E0,-8.158598705E-8
7.334861429E0,-8.161096223E-8
7.355699104E0,-8.166571248E-8
7.376536778E0,-8.172517507E-8
7.397374453E0,-8.176455048E-8
7.418212128E0,-8.179053507E-8
7.439049802E0,-8.179664122E-8
7.459887477E0,-8.179197410E-8
7.480725151E0,-8.181561438E-8
7.501562826E0,-8.185135497E-8
7.522400500E0,-8.188815321E-8
7.543238175E0,-8.194382590E-8
7.564075849E0,-8.200318859E-8
7.584913524E0,-8.206020433E-8
7.605751198E0,-8.212020521E-8
7.626588873E0,-8.218543219E-8
7.647426547E0,-8.225121589E-8
7.668264222E0,-8.231463160E-8
7.689101896E0,-8.238330160E-8
7.709939571E0,-8.244500430E-8
7.730777245E0,-8.250597639E-8
7.751614920E0,-8.257037838E-8
7.772452594E0,-8.262995748E-8
7.793290269E0,-8.269734363E-8
7.814127943E0,-8.275624686E-8
7.834965618E0,-8.280187281E-8
7.855803292E0,-8.283884239E-8
7.876640967E0,-8.286378891E-8
7.897478641E0,-8.289054142E-8
7.918316316E0,-8.290741225E-8
7.939153990E0,-8.292448231E-8
7.959991665E0,-8.293943649E-8
7.980829339E0,-8.292576391E-8
8.001667014E0,-8.290109576E-8
8.022504688E0,-8.285461478E-8
8.043342363E0,-8.277484013E-8
8.064180038E0,-8.267561658E-8
8.085017712E0,-8.256617684E-8
8.105855387E0,-8.245525850E-8
8.126693061E0,-8.233212809E-8
8.147530736E0,-8.220761286E-8
8.168368410E0,-8.207646267E-8
8.189206085E0,-8.192074193E-8
8.210043759E0,-8.175415929E-8
8.230881434E0,-8.156983801E-8
8.251719108E0,-8.136203420E-8
8.272556783E0,-8.113095502E-8
8.293394457E0,-8.088497708E-8
8.314232132E0,-8.063370803E-8
8.335069806E0,-8.037019795E-8
8.355907481E0,-8.010574915E-8
8.376745155E0,-7.982416143E-8
8.397582830E0,-7.950947046E-8
8.418420504E0,-7.918486680E-8
8.439258179E0,-7.885617120E-8
8.460095853E0,-7.853782661E-8
8.480933528E0,-7.824841498E-8
8.501771202E0,-7.797896372E-8
8.522608877E0,-7.772365489E-8
8.543446551E0,-7.746689245E-8
8.564284226E0,-7.719572712E-8
8.585121900E0,-7.691496329E-8
8.605959575E0,-7.661176843E-8
8.626797249E0,-7.631031531E-8
8.647634924E0,-7.602788939E-8
8.668472598E0,-7.574456753E-8
8.689310273E0,-7.548827424E-8
8.710147947E0,-7.524601514E-8
8.730985622E0,-7.499717244E-8
8.751823297E0,-7.476419550E-8
8.772660971E0,-7.452958692E-8
8.793498646E0,-7.428689387E-8
8.814336320E0,-7.405243595E-8
8.835173995E0,-7.383251424E-8
8.856011669E0,-7.361290587E-8
8.876849344E0,-7.339758922E-8
8.897687018E0,-7.319299142E-8
8.918524693E0,-7.297615676E-8
8.939362367E0,-7.275344885E-8
8.960200042E0,-7.252984609E-8
8.981037716E0,-7.231695358E-8
9.001875391E0,-7.211342293E-8
9.022713065E0,-7.190597945E-8
9.043550740E0,-7.170903462E-8
9.064388414E0,-7.150198978E-8
9.085226089E0,-7.127153004E-8
9.106063763E0,-7.103112197E-8
9.126901438E0,-7.079759036E-8
9.147739112E0,-7.055454348E-8
9.168576787E0,-7.030348961E-8
9.189414461E0,-7.008037615E-8
9.210252136E0,-6.982699672E-8
9.231089810E0,-6.953337124E-8
9.251927485E0,-6.924320917E-8
9.272765159E0,-6.893629577E-8
9.293602834E0,-6.860309496E-8
9.314440508E0,-6.826165029E-8
9.335278183E0,-6.792675418E-8
9.356115857E0,-6.756006680E-8
9.376953532E0,-6.716575191E-8
9.397791207E0,-6.676350017E-8
9.418628881E0,-6.633756987E-8
9.439466556E0,-6.591064134E-8
9.460304230E0,-6.547599798E-8
9.481141905E0,-6.504940714E-8
9.501979579E0,-6.463549173E-8
9.522817254E0,-6.421195552E-8
9.543654928E0,-6.378926496E-8
9.564492603E0,-6.335849592E-8
9.585330277E0,-6.293336154E-8
9.606167952E0,-6.250620826E-8
9.627005626E0,-6.208189714E-8
9.647843301E0,-6.169029437E-8
9.668680975E0,-6.129716867E-8
9.689518650E0,-6.089895921E-8
9.710356324E0,-6.051854304E-8
9.731193999E0,-6.013841204E-8
9.752031673E0,-5.975888262E-8
9.772869348E0,-5.941625831E-8
9.793707022E0,-5.910991800E-8
9.814544697E0,-5.882505802E-8
9.835382371E0,-5.857630132E-8
9.856220046E0,-5.835876500E-8
9.877057720E0,-5.814853418E-8
9.897895395E0,-5.792592018E-8
9.918733069E0,-5.771819937E-8
9.939570744E0,-5.751633135E-8
9.960408418E0,-5.727416769E-8
9.981246093E0,-5.703544368E-8
1.000208377E1,-5.680448959E-8
1.002292144E1,-5.654609654E-8
1.004375912E1,-5.628676628E-8
1.006459679E1,-5.604878211E-8
1.008543447E1,-5.580037446E-8
1.010627214E1,-5.551406601E-8
1.012710981E1,-5.522615951E-8
1.014794749E1,-5.489936232E-8
1.016878516E1,-5.450227852E-8
1.018962284E1,-5.410437678E-8
1.021046051E1,-5.368514601E-8
1.023129819E1,-5.322635651E-8
1.025213586E1,-5.278292961E-8
1.027297354E1,-5.233059519E-8
1.029381121E1,-5.183077052E-8
1.031464889E1,-5.131982306E-8
1.033548656E1,-5.079999504E-8
1.035632423E1,-5.024984226E-8
1.037716191E1,-4.971366919E-8
1.039799958E1,-4.919972435E-8
1.041883726E1,-4.868147512E-8
1.043967493E1,-4.816848444E-8
1.046051261E1,-4.764978345E-8
1.048135028E1,-4.709843301E-8
1.050218796E1,-4.652667236E-8
1.052302563E1,-4.595577361E-8
1.054386330E1,-4.538038729E-8
1.056470098E1,-4.482117092E-8
1.058553865E1,-4.428643869E-8
1.060637633E1,-4.375823405E-8
1.062721400E1,-4.323917930E-8
1.064805168E1,-4.271242054E-8
1.066888935E1,-4.217833732E-8
1.068972703E1,-4.165237760E-8
1.071056470E1,-4.113893076E-8
1.073140238E1,-4.064286449E-8
1.075224005E1,-4.014202680E-8
1.077307772E1,-3.963308073E-8
1.079391540E1,-3.912444753E-8
1.081475307E1,-3.860111504E-8
1.083559075E1,-3.807301181E-8
1.085642842E1,-3.755659049E-8
1.087726610E1,-3.704718713E-8
1.089810377E1,-3.655555049E-8
1.091894145E1,-3.607980232E-8
1.093977912E1,-3.560715809E-8
1.096061680E1,-3.514974272E-8
1.098145447E1,-3.468787973E-8
1.100229214E1,-3.420545115E-8
1.102312982E1,-3.371585021E-8
1.104396749E1,-3.321863531E-8
1.106480517E1,-3.271532749E-8
1.108564284E1,-3.220040556E-8
1.110648052E1,-3.168631431E-8
1.112731819E1,-3.117930252E-8
1.114815587E1,-3.065951659E-8
1.116899354E1,-3.013032274E-8
1.118983121E1,-2.959569049E-8
1.121066889E1,-2.905500480E-8
1.123150656E1,-2.850858162E-8
1.125234424E1,-2.795890193E-8
1.127318191E1,-2.740102024E-8
1.129401959E1,-2.681476168E-8
1.131485726E1,-2.619742686E-8
1.133569494E1,-2.554994568E-8
1.135653261E1,-2.486797237E-8
1.137737029E1,-2.416034616E-8
1.139820796E1,-2.343263653E-8
1.141904563E1,-2.268220703E-8
1.143988331E1,-2.193257872E-8
1.146072098E1,-2.120704145E-8
1.148155866E1,-2.048454595E-8
1.150239633E1,-1.976148311E-8
1.152323401E1,-1.905544654E-8
1.154407168E1,-1.832633373E-8
1.156490936E1,-1.755068017E-8
1.158574703E1,-1.676742360E-8
1.160658471E1,-1.596111181E-8
1.162742238E1,-1.511995435E-8
1.164826005E1,-1.429247608E-8
1.166909773E1,-1.347742738E-8
1.168993540E1,-1.266242103E-8
1.171077308E1,-1.186224918E-8
1.173161075E1,-1.107475070E-8
1.175244843E1,-1.030111794E-8
1.177328610E1,-9.534911874E-9
1.179412378E1,-8.777470959E-9
1.181496145E1,-8.037014173E-9
1.183579912E1,-7.278560210E-9
1.185663680E1,-6.500444669E-9
1.187747447E1,-5.742188116E-9
1.189831215E1,-4.985264442E-9
1.191914982E1,-4.216769405E-9
1.193998750E1,-3.468115927E-9
1.196082517E1,-2.721165486E-9
1.198166285E1,-1.951522221E-9
1.200250052E1,-1.185695813E-9
1.202333820E1,-4.147281039E-10
1.204417587E1,3.751887227E-10
1.206501354E1,1.164789665E-9
1.208585122E1,1.955351044E-9
1.210668889E1,2.744941691E-9
1.212752657E1,3.543462562E-9
1.214836424E1,4.349955746E-9
1.216920192E1,5.150204042E-9
1.219003959E1,5.965955467E-9
1.221087727E1,6.780613810E-9
1.223171494E1,7.584825793E-9
1.225255262E1,8.400374012E-9
1.227339029E1,9.221202551E-9
1.229422796E1,1.005627182E-8
1.231506564E1,1.089647121E-8
1.233590331E1,1.172842551E-8
1.235674099E1,1.255953781E-8
1.237757866E1,1.339361298E-8
1.239841634E1,1.423067874E-8
1.241925401E1,1.506162288E-8
1.244009169E1,1.590836903E-8
1.246092936E1,1.677017268E-8
1.248176703E1,1.763212181E-8
1.250260471E1,1.850287748E-8
1.252344238E1,1.938100359E-8
1.254428006E1,2.027854796E-8
1.256511773E1,2.117948144E-8
1.258595541E1,2.208632194E-8
1.260679308E1,2.302214876E-8
1.262763076E1,2.396115409E-8
1.264846843E1,2.489332265E-8
1.266930611E1,2.584162019E-8
1.269014378E1,2.682029516E-8
1.271098145E1,2.780507705E-8
1.273181913E1,2.879936661E-8
1.275265680E1,2.982232659E-8
1.277349448E1,3.083729369E-8
1.279433215E1,3.182690609E-8
1.281516983E1,3.281165726E-8
1.283600750E1,3.379542490E-8
1.285684518E1,3.476288227E-8
1.287768285E1,3.573491697E-8
1.289852053E1,3.673676691E-8
1.291935820E1,3.774854110E-8
1.294019587E1,3.873967147E-8
1.296103355E1,3.969937461E-8
1.298187122E1,4.064712371E-8
1.300270890E1,4.157599620E-8
1.302354657E1,4.247744085E-8
1.304438425E1,4.338112424E-8
1.306522192E1,4.430714877E-8
1.308605960E1,4.522099260E-8
1.310689727E1,4.609324231E-8
1.312773494E1,4.697245017E-8
1.314857262E1,4.783488476E-8
1.316941029E1,4.864834304E-8
1.319024797E1,4.947009974E-8
1.321108564E1,5.029720201E-8
1.323192332E1,5.111568409E-8
1.325276099E1,5.192793375E-8
1.327359867E1,5.273333221E-8
1.329443634E1,5.354259674E-8
1.331527402E1,5.434511579E-8
1.333611169E1,5.515228749E-8
1.335694936E1,5.598788583E-8
1.337778704E1,5.683846871E-8
1.339862471E1,5.767316464E-8
1.341946239E1,5.848891498E-8
1.344030006E1,5.930234511E-8
1.346113774E1,6.010748991E-8
1.348197541E1,6.090028824E-8
1.350281309E1,6.172514183E-8
1.352365076E1,6.257587064E-8
1.354448844E1,6.339791028E-8
1.356532611E1,6.421353788E-8
1.358616378E1,6.501195760E-8
1.360700146E1,6.576987501E-8
1.362783913E1,6.651987684E-8
1.364867681E1,6.726126087E-8
1.366951448E1,6.801643306E-8
1.369035216E1,6.879142889E-8
1.371118983E1,6.955573788E-8
1.373202751E1,7.031237437E-8
1.375286518E1,7.105426920E-8
1.377370285E1,7.177714539E-8
1.379454053E1,7.248517565E-8
1.381537820E1,7.318473607E-8
1.383621588E1,7.388853269E-8
1.385705355E1,7.458660261E-8
1.387789123E1,7.526817030E-8
1.389872890E1,7.594057795E-8
1.391956658E1,7.660363923E-8
1.394040425E1,7.724991143E-8
1.396124193E1,7.789308447E-8
1.398207960E1,7.854081013E-8
1.400291727E1,7.918981363E-8
