"Delay (ms)","Autocorrelation (a.u.)"
0.000000000E0,2.757851811E-7
2.083767452E-2,2.679940384E-7
4.167534903E-2,2.663827137E-7
6.251302355E-2,2.640603339E-7
8.335069806E-2,2.620201107E-7
1.041883726E-1,2.575226369E-7
1.250260471E-1,2.529535444E-7
1.458637216E-1,2.496675101E-7
1.667013961E-1,2.462823466E-7
1.875390706E-1,2.409269879E-7
2.083767452E-1,2.352573320E-7
2.292144197E-1,2.306951554E-7
2.500520942E-1,2.253853149E-7
2.708897687E-1,2.196043845E-7
2.917274432E-1,2.127124415E-7
3.125651177E-1,2.062154492E-7
3.334027922E-1,1.998716750E-7
3.542404668E-1,1.933317014E-7
3.750781413E-1,1.864789411E-7
3.959158158E-1,1.799203790E-7
4.167534903E-1,1.732577574E-7
4.375911648E-1,1.663078253E-7
4.584288393E-1,1.591661077E-7
4.792665139E-1,1.519330833E-7
5.001041884E-1,1.443532441E-7
5.209418629E-1,1.373516483E-7
5.417795374E-1,1.295714725E-7
5.626172119E-1,1.221667704E-7
5.834548864E-1,1.143973261E-7
6.042925610E-1,1.067319876E-7
6.251302355E-1,9.879438632E-8
6.459679100E-1,9.141568681E-8
6.668055845E-1,8.368054436E-8
6.876432590E-1,7.620570899E-8
7.084809335E-1,6.854072982E-8
7.293186080E-1,6.095442729E-8
7.501562826E-1,5.343258006E-8
7.709939571E-1,4.566335394E-8
7.918316316E-1,3.861879061E-8
8.126693061E-1,3.155151089E-8
8.335069806E-1,2.448576182E-8
8.543446551E-1,1.733935156E-8
8.751823297E-1,1.068476364E-8
8.960200042E-1,4.256831352E-9
9.168576787E-1,-2.451477568E-9
9.376953532E-1,-8.379161107E-9
9.585330277E-1,-1.471995097E-8
9.793707022E-1,-2.028237556E-8
1.000208377E0,-2.634102441E-8
1.021046051E0,-3.176670536E-8
1.041883726E0,-3.704624741E-8
1.062721400E0,-4.229702763E-8
1.083559075E0,-4.682838195E-8
1.104396749E0,-5.130004118E-8
1.125234424E0,-5.562915720E-8
1.146072098E0,-5.997246322E-8
1.166909773E0,-6.381071268E-8
1.187747447E0,-6.750331268E-8
1.208585122E0,-7.093861661E-8
1.229422796E0,-7.424807654E-8
1.250260471E0,-7.718679680E-8
1.271098145E0,-7.965195768E-8
1.291935820E0,-8.211815915E-8
1.312773494E0,-8.420398624E-8
1.333611169E0,-8.590152877E-8
1.354448844E0,-8.720050958E-8
1.375286518E0,-8.857853468E-8
1.396124193E0,-8.909882198E-8
1.416961867E0,-8.975532747E-8
1.437799542E0,-8.991741304E-8
1.458637216E0,-8.981749730E-8
1.479474891E0,-8.906429402E-8
1.500312565E0,-8.827275494E-8
1.521150240E0,-8.710220484E-8
1.541987914E0,-8.549091930E-8
1.562825589E0,-8.371200353E-8
1.583663263E0,-8.196663821E-8
1.604500938E0,-7.946865301E-8
1.625338612E0,-7.693253044E-8
1.646176287E0,-7.426395012E-8
1.667013961E0,-7.135114806E-8
1.687851636E0,-6.805739872E-8
1.708689310E0,-6.474231596E-8
1.729526985E0,-6.097270374E-8
1.750364659E0,-5.741773507E-8
1.771202334E0,-5.348695171E-8
1.792040008E0,-4.939348498E-8
1.812877683E0,-4.531290408E-8
1.833715357E0,-4.113789376E-8
1.854553032E0,-3.679682971E-8
1.875390706E0,-3.221169937E-8
1.896228381E0,-2.783604313E-8
1.917066055E0,-2.313509723E-8
1.937903730E0,-1.888920832E-8
1.958741404E0,-1.422869326E-8
1.979579079E0,-9.782153096E-9
2.000416753E0,-5.082281142E-9
2.021254428E0,-4.358581728E-10
2.042092103E0,4.154902945E-9
2.062929777E0,8.390421970E-9
2.083767452E0,1.330007898E-8
2.104605126E0,1.760415700E-8
2.125442801E0,2.192989112E-8
2.146280475E0,2.583552668E-8
2.167118150E0,3.006212489E-8
2.187955824E0,3.399476171E-8
2.208793499E0,3.769396180E-8
2.229631173E0,4.096807237E-8
2.250468848E0,4.456473796E-8
2.271306522E0,4.788459243E-8
2.292144197E0,5.104362583E-8
2.312981871E0,5.372950684E-8
2.333819546E0,5.659393795E-8
2.354657220E0,5.914047376E-8
2.375494895E0,6.146589870E-8
2.396332569E0,6.313929722E-8
2.417170244E0,6.487206528E-8
2.438007918E0,6.668571921E-8
2.458845593E0,6.808938728E-8
2.479683267E0,6.892204864E-8
2.500520942E0,6.966412258E-8
2.521358616E0,7.038143429E-8
2.542196291E0,7.078569190E-8
2.563033965E0,7.083567418E-8
2.583871640E0,7.089922146E-8
2.604709314E0,7.073429817E-8
2.625546989E0,7.037861631E-8
2.646384663E0,6.961541578E-8
2.667222338E0,6.876637113E-8
2.688060013E0,6.766474220E-8
2.708897687E0,6.687813448E-8
2.729735362E0,6.508347047E-8
2.750573036E0,6.359249302E-8
2.771410711E0,6.142678029E-8
2.792248385E0,5.963478402E-8
2.813086060E0,5.720416833E-8
2.833923734E0,5.487414911E-8
2.854761409E0,5.215366473E-8
2.875599083E0,4.929217503E-8
2.896436758E0,4.614772292E-8
2.917274432E0,4.276089658E-8
2.938112107E0,3.929785468E-8
2.958949781E0,3.564118309E-8
2.979787456E0,3.195894310E-8
3.000625130E0,2.798608335E-8
3.021462805E0,2.388067135E-8
3.042300479E0,1.966043167E-8
3.063138154E0,1.508790608E-8
3.083975828E0,1.062872889E-8
3.104813503E0,5.750531434E-9
3.125651177E0,7.406518024E-10
3.146488852E0,-4.240933298E-9
3.167326526E0,-9.039319128E-9
3.188164201E0,-1.428569065E-8
3.209001875E0,-1.898567019E-8
3.229839550E0,-2.407864843E-8
3.250677224E0,-2.859545347E-8
3.271514899E0,-3.366260732E-8
3.292352573E0,-3.830821465E-8
3.313190248E0,-4.299736323E-8
3.334027922E0,-4.755224679E-8
3.354865597E0,-5.207657107E-8
3.375703272E0,-5.659200299E-8
3.396540946E0,-6.094729981E-8
3.417378621E0,-6.525063722E-8
3.438216295E0,-6.929743219E-8
3.459053970E0,-7.333914055E-8
3.479891644E0,-7.728127991E-8
3.500729319E0,-8.094122083E-8
3.521566993E0,-8.447121896E-8
3.542404668E0,-8.777383369E-8
3.563242342E0,-9.113783087E-8
3.584080017E0,-9.412898190E-8
3.604917691E0,-9.703970616E-8
3.625755366E0,-9.986391179E-8
3.646593040E0,-1.026877278E-7
3.667430715E0,-1.049905074E-7
3.688268389E0,-1.070646256E-7
3.709106064E0,-1.092688013E-7
3.729943738E0,-1.113040317E-7
3.750781413E0,-1.128591613E-7
3.771619087E0,-1.142107145E-7
3.792456762E0,-1.155211070E-7
3.813294436E0,-1.166918744E-7
3.834132111E0,-1.175163243E-7
3.854969785E0,-1.183816939E-7
3.875807460E0,-1.186919554E-7
3.896645134E0,-1.191319653E-7
3.917482809E0,-1.188760974E-7
3.938320483E0,-1.185360954E-7
3.959158158E0,-1.180349342E-7
3.979995832E0,-1.173009775E-7
4.000833507E0,-1.161966389E-7
4.021671181E0,-1.148704625E-7
4.042508856E0,-1.133415125E-7
4.063346531E0,-1.116612285E-7
4.084184205E0,-1.097967416E-7
4.105021880E0,-1.075255717E-7
4.125859554E0,-1.054705614E-7
4.146697229E0,-1.032353160E-7
4.167534903E0,-1.006281894E-7
4.188372578E0,-9.753735856E-8
4.209210252E0,-9.489889415E-8
4.230047927E0,-9.179230369E-8
4.250885601E0,-8.862478589E-8
4.271723276E0,-8.530691834E-8
4.292560950E0,-8.225925899E-8
4.313398625E0,-7.873437139E-8
4.334236299E0,-7.514892964E-8
4.355073974E0,-7.147631973E-8
4.375911648E0,-6.803463584E-8
4.396749323E0,-6.426206944E-8
4.417586997E0,-6.044969619E-8
4.438424672E0,-5.637009061E-8
4.459262346E0,-5.258256192E-8
4.480100021E0,-4.833086821E-8
4.500937695E0,-4.435119009E-8
4.521775370E0,-4.011047620E-8
4.542613044E0,-3.638072813E-8
4.563450719E0,-3.240396722E-8
4.584288393E0,-2.839659467E-8
4.605126068E0,-2.435859041E-8
4.625963742E0,-2.072833547E-8
4.646801417E0,-1.703890971E-8
4.667639091E0,-1.301470382E-8
4.688476766E0,-9.601681285E-9
4.709314441E0,-6.002490052E-9
4.730152115E0,-2.520049320E-9
4.750989790E0,1.123412948E-9
4.771827464E0,4.257678373E-9
4.792665139E0,7.497452411E-9
4.813502813E0,1.018319396E-8
4.834340488E0,1.307521439E-8
4.855178162E0,1.582391895E-8
4.876015837E0,1.828194781E-8
4.896853511E0,2.061191289E-8
4.917691186E0,2.303390905E-8
4.938528860E0,2.510529710E-8
4.959366535E0,2.673724629E-8
4.980204209E0,2.837460754E-8
5.001041884E0,3.011051663E-8
5.021879558E0,3.134363163E-8
5.042717233E0,3.229061688E-8
5.063554907E0,3.283540519E-8
5.084392582E0,3.360222479E-8
5.105230256E0,3.408149915E-8
5.126067931E0,3.432068887E-8
5.146905605E0,3.441863863E-8
5.167743280E0,3.501871087E-8
5.188580954E0,3.467380863E-8
5.209418629E0,3.453180358E-8
5.230256303E0,3.371473707E-8
5.251093978E0,3.291062172E-8
5.271931652E0,3.219729817E-8
5.292769327E0,3.061400299E-8
5.313607001E0,2.925008601E-8
5.334444676E0,2.772467781E-8
5.355282350E0,2.596325616E-8
5.376120025E0,2.432921315E-8
5.396957700E0,2.202872196E-8
5.417795374E0,2.014651763E-8
5.438633049E0,1.779074388E-8
5.459470723E0,1.541258822E-8
5.480308398E0,1.284309636E-8
5.501146072E0,1.001233363E-8
5.521983747E0,7.185251211E-9
5.542821421E0,4.246411907E-9
5.563659096E0,1.115820186E-9
5.584496770E0,-2.269739152E-9
5.605334445E0,-5.139026045E-9
5.626172119E0,-8.390949130E-9
5.647009794E0,-1.160647135E-8
5.667847468E0,-1.524793899E-8
5.688685143E0,-1.847462555E-8
5.709522817E0,-2.188999017E-8
5.730360492E0,-2.519222419E-8
5.751198166E0,-2.929219477E-8
5.772035841E0,-3.288023745E-8
5.792873515E0,-3.623899298E-8
5.813711190E0,-3.989031128E-8
5.834548864E0,-4.366934464E-8
5.855386539E0,-4.782863860E-8
5.876224213E0,-5.131632736E-8
5.897061888E0,-5.538575557E-8
5.917899562E0,-5.937408263E-8
5.938737237E0,-6.346813798E-8
5.959574911E0,-6.705584433E-8
5.980412586E0,-7.087895149E-8
6.001250260E0,-7.448826111E-8
6.022087935E0,-7.803764709E-8
6.042925610E0,-8.142485124E-8
6.063763284E0,-8.430379864E-8
6.084600959E0,-8.747552645E-8
6.105438633E0,-9.033188392E-8
6.126276308E0,-9.274017603E-8
6.147113982E0,-9.537446049E-8
6.167951657E0,-9.771277648E-8
6.188789331E0,-9.972514436E-8
6.209627006E0,-1.015594649E-7
6.230464680E0,-1.032110672E-7
6.251302355E0,-1.045966314E-7
6.272140029E0,-1.057199132E-7
6.292977704E0,-1.066248398E-7
6.313815378E0,-1.072321540E-7
6.334653053E0,-1.079882611E-7
6.355490727E0,-1.081973066E-7
6.376328402E0,-1.082818957E-7
6.397166076E0,-1.081076260E-7
6.418003751E0,-1.077686593E-7
6.438841425E0,-1.072246549E-7
6.459679100E0,-1.065812607E-7
6.480516774E0,-1.055917311E-7
6.501354449E0,-1.044291090E-7
6.522192123E0,-1.028317527E-7
6.543029798E0,-1.010869065E-7
6.563867472E0,-9.938385109E-8
6.584705147E0,-9.733920187E-8
6.605542821E0,-9.490037846E-8
6.626380496E0,-9.245547977E-8
6.647218170E0,-8.997270250E-8
6.668055845E0,-8.710755667E-8
6.688893519E0,-8.413550257E-8
6.709731194E0,-8.096745427E-8
6.730568869E0,-7.801849594E-8
6.751406543E0,-7.460880076E-8
6.772244218E0,-7.082900688E-8
6.793081892E0,-6.728816010E-8
6.813919567E0,-6.346027443E-8
6.834757241E0,-5.971668671E-8
6.855594916E0,-5.562230861E-8
6.876432590E0,-5.135754378E-8
6.897270265E0,-4.693874112E-8
6.918107939E0,-4.272702865E-8
6.938945614E0,-3.800846891E-8
6.959783288E0,-3.343043483E-8
6.980620963E0,-2.879382415E-8
7.001458637E0,-2.444283636E-8
7.022296312E0,-1.968172782E-8
7.043133986E0,-1.511071921E-8
7.063971661E0,-1.035853669E-8
7.084809335E0,-5.744965622E-9
7.105647010E0,-1.179452473E-9
7.126484684E0,3.597019311E-9
7.147322359E0,8.131990271E-9
7.168160033E0,1.268237294E-8
7.188997708E0,1.701153188E-8
7.209835382E0,2.125857735E-8
7.230673057E0,2.569220533E-8
7.251510731E0,2.985482957E-8
7.272348406E0,3.371592774E-8
7.293186080E0,3.767461422E-8
7.314023755E0,4.158295636E-8
7.334861429E0,4.553053488E-8
7.355699104E0,4.901893961E-8
7.376536778E0,5.246157240E-8
7.397374453E0,5.615277989E-8
7.418212128E0,5.936175484E-8
7.439049802E0,6.215231405E-8
7.459887477E0,6.516427573E-8
7.480725151E0,6.797941780E-8
7.501562826E0,7.060683660E-8
7.522400500E0,7.281016527E-8
7.543238175E0,7.506401193E-8
7.564075849E0,7.719293502E-8
7.584913524E0,7.901545631E-8
7.605751198E0,8.078063119E-8
7.626588873E0,8.243275995E-8
7.647426547E0,8.382113260E-8
7.668264222E0,8.495985984E-8
7.689101896E0,8.573064959E-8
7.709939571E0,8.647845171E-8
7.730777245E0,8.690738905E-8
7.751614920E0,8.721537249E-8
7.772452594E0,8.721235296E-8
7.793290269E0,8.721964268E-8
7.814127943E0,8.711749214E-8
7.834965618E0,8.645574402E-8
7.855803292E0,8.594551299E-8
7.876640967E0,8.508480482E-8
7.897478641E0,8.400083026E-8
7.918316316E0,8.265635344E-8
7.939153990E0,8.103180812E-8
7.959991665E0,7.934961089E-8
7.980829339E0,7.732359970E-8
8.001667014E0,7.542004586E-8
8.022504688E0,7.298531376E-8
8.043342363E0,7.068050505E-8
8.064180038E0,6.816424421E-8
8.085017712E0,6.554383153E-8
8.105855387E0,6.257301115E-8
8.126693061E0,5.960886846E-8
8.147530736E0,5.659247423E-8
8.168368410E0,5.342660408E-8
8.189206085E0,5.004923712E-8
8.210043759E0,4.649743154E-8
8.230881434E0,4.304105693E-8
8.251719108E0,3.959453216E-8
8.272556783E0,3.597468760E-8
8.293394457E0,3.207414015E-8
8.314232132E0,2.820991103E-8
8.335069806E0,2.442647449E-8
8.355907481E0,2.077829570E-8
8.376745155E0,1.664691456E-8
8.397582830E0,1.269602148E-8
8.418420504E0,9.190772505E-9
8.439258179E0,5.623535492E-9
8.460095853E0,1.694354270E-9
8.480933528E0,-2.224955707E-9
8.501771202E0,-5.872082135E-9
8.522608877E0,-8.973232558E-9
8.543446551E0,-1.269568751E-8
8.564284226E0,-1.613486123E-8
8.585121900E0,-1.915196532E-8
8.605959575E0,-2.194753888E-8
8.626797249E0,-2.509432327E-8
8.647634924E0,-2.792481006E-8
8.668472598E0,-3.065185683E-8
8.689310273E0,-3.314365195E-8
8.710147947E0,-3.573881307E-8
8.730985622E0,-3.843741095E-8
8.751823297E0,-4.109535281E-8
8.772660971E0,-4.317389419E-8
8.793498646E0,-4.548781120E-8
8.814336320E0,-4.768086462E-8
8.835173995E0,-4.959441687E-8
8.856011669E0,-5.136238677E-8
8.876849344E0,-5.300681839E-8
8.897687018E0,-5.479511866E-8
8.918524693E0,-5.634863710E-8
8.939362367E0,-5.732225461E-8
8.960200042E0,-5.865797776E-8
8.981037716E0,-5.971144098E-8
9.001875391E0,-6.046006285E-8
9.022713065E0,-6.092922561E-8
9.043550740E0,-6.127338882E-8
9.064388414E0,-6.146024900E-8
9.085226089E0,-6.113394303E-8
9.106063763E0,-6.100664493E-8
9.126901438E0,-6.042579714E-8
9.147739112E0,-5.994783106E-8
9.168576787E0,-5.905290023E-8
9.189414461E0,-5.832250053E-8
9.210252136E0,-5.710088725E-8
9.231089810E0,-5.574255245E-8
9.251927485E0,-5.404771065E-8
9.272765159E0,-5.248660301E-8
9.293602834E0,-5.020628665E-8
9.314440508E0,-4.823878664E-8
9.335278183E0,-4.562688820E-8
9.356115857E0,-4.305852518E-8
9.376953532E0,-4.032498290E-8
9.397791207E0,-3.749917131E-8
9.418628881E0,-3.462258072E-8
9.439466556E0,-3.161076358E-8
9.460304230E0,-2.833676438E-8
9.481141905E0,-2.512513254E-8
9.501979579E0,-2.180632636E-8
9.522817254E0,-1.835496764E-8
9.543654928E0,-1.502063302E-8
9.564492603E0,-1.147622833E-8
9.585330277E0,-8.045639929E-9
9.606167952E0,-4.310184056E-9
9.627005626E0,-8.634807273E-10
9.647843301E0,2.771420140E-9
9.668680975E0,6.165501500E-9
9.689518650E0,1.015281251E-8
9.710356324E0,1.344615770E-8
9.731193999E0,1.708277304E-8
9.752031673E0,2.059809492E-8
9.772869348E0,2.431824951E-8
9.793707022E0,2.760521844E-8
9.814544697E0,3.089435135E-8
9.835382371E0,3.435112736E-8
9.856220046E0,3.791991677E-8
9.877057720E0,4.128432844E-8
9.897895395E0,4.441708843E-8
9.918733069E0,4.764305123E-8
9.939570744E0,5.049931315E-8
9.960408418E0,5.360082488E-8
9.981246093E0,5.624339147E-8
1.000208377E1,5.886864124E-8
1.002292144E1,6.146966190E-8
1.004375912E1,6.406433835E-8
1.006459679E1,6.619940961E-8
1.008543447E1,6.801416826E-8
1.010627214E1,6.980473135E-8
1.012710981E1,7.163541539E-8
1.014794749E1,7.332896664E-8
1.016878516E1,7.460191880E-8
1.018962284E1,7.575340232E-8
1.021046051E1,7.693156635E-8
1.023129819E1,7.805797272E-8
1.025213586E1,7.895812454E-8
1.027297354E1,7.961478170E-8
1.029381121E1,8.008141318E-8
1.031464889E1,8.069450397E-8
1.033548656E1,8.109971694E-8
1.035632423E1,8.111423548E-8
1.037716191E1,8.118677900E-8
1.039799958E1,8.101358757E-8
1.041883726E1,8.064863640E-8
1.043967493E1,8.043451146E-8
1.046051261E1,7.918993815E-8
1.048135028E1,7.868689598E-8
1.050218796E1,7.741510507E-8
1.052302563E1,7.624138359E-8
1.054386330E1,7.476108465E-8
1.056470098E1,7.336730588E-8
1.058553865E1,7.163567463E-8
1.060637633E1,6.989846138E-8
1.062721400E1,6.780419108E-8
1.064805168E1,6.573413268E-8
1.066888935E1,6.342354516E-8
1.068972703E1,6.095894030E-8
1.071056470E1,5.835846303E-8
1.073140238E1,5.574612210E-8
1.075224005E1,5.255102847E-8
1.077307772E1,4.959689549E-8
1.079391540E1,4.627011518E-8
1.081475307E1,4.305621086E-8
1.083559075E1,3.952093457E-8
1.085642842E1,3.599140599E-8
1.087726610E1,3.222075682E-8
1.089810377E1,2.857659997E-8
1.091894145E1,2.474517111E-8
1.093977912E1,2.071043553E-8
1.096061680E1,1.700241145E-8
1.098145447E1,1.277914936E-8
1.100229214E1,8.971828005E-9
1.102312982E1,4.711345246E-9
1.104396749E1,4.767848122E-10
1.106480517E1,-3.822371241E-9
1.108564284E1,-8.108921789E-9
1.110648052E1,-1.237980230E-8
1.112731819E1,-1.664438922E-8
1.114815587E1,-2.088149680E-8
1.116899354E1,-2.501793660E-8
1.118983121E1,-2.913599964E-8
1.121066889E1,-3.316749546E-8
1.123150656E1,-3.719585647E-8
1.125234424E1,-4.112598062E-8
1.127318191E1,-4.504023793E-8
1.129401959E1,-4.847842400E-8
1.131485726E1,-5.246012955E-8
1.133569494E1,-5.619446362E-8
1.135653261E1,-5.959107439E-8
1.137737029E1,-6.274014123E-8
1.139820796E1,-6.598200366E-8
1.141904563E1,-6.898949387E-8
1.143988331E1,-7.168270018E-8
1.146072098E1,-7.407213835E-8
1.148155866E1,-7.681756384E-8
1.150239633E1,-7.926940693E-8
1.152323401E1,-8.156999844E-8
1.154407168E1,-8.336960167E-8
1.156490936E1,-8.566851329E-8
1.158574703E1,-8.751711089E-8
1.160658471E1,-8.916574079E-8
1.162742238E1,-9.077848346E-8
1.164826005E1,-9.213088256E-8
1.166909773E1,-9.339759653E-8
1.168993540E1,-9.419012918E-8
1.171077308E1,-9.527355222E-8
1.173161075E1,-9.611218197E-8
1.175244843E1,-9.668275988E-8
1.177328610E1,-9.755730418E-8
1.179412378E1,-9.783704219E-8
1.181496145E1,-9.828126342E-8
1.183579912E1,-9.832869412E-8
1.185663680E1,-9.856500917E-8
1.187747447E1,-9.812397032E-8
1.189831215E1,-9.784480695E-8
1.191914982E1,-9.736021524E-8
1.193998750E1,-9.650965130E-8
1.196082517E1,-9.555753075E-8
1.198166285E1,-9.437042052E-8
1.200250052E1,-9.335384344E-8
1.202333820E1,-9.215351970E-8
1.204417587E1,-9.055248069E-8
1.206501354E1,-8.877924560E-8
1.208585122E1,-8.715259273E-8
1.210668889E1,-8.496425606E-8
1.212752657E1,-8.277112822E-8
1.214836424E1,-8.040889373E-8
1.216920192E1,-7.795253892E-8
1.219003959E1,-7.539691485E-8
1.221087727E1,-7.282991155E-8
1.223171494E1,-6.993231137E-8
1.225255262E1,-6.706716541E-8
1.227339029E1,-6.425506505E-8
1.229422796E1,-6.164337847E-8
1.231506564E1,-5.849475786E-8
1.233590331E1,-5.546216269E-8
1.235674099E1,-5.228224002E-8
1.237757866E1,-4.927661842E-8
1.239841634E1,-4.591099147E-8
1.241925401E1,-4.253024989E-8
1.244009169E1,-3.947407298E-8
1.246092936E1,-3.626107326E-8
1.248176703E1,-3.307758059E-8
1.250260471E1,-3.003604001E-8
1.252344238E1,-2.715096967E-8
1.254428006E1,-2.439874355E-8
1.256511773E1,-2.144482843E-8
1.258595541E1,-1.867350592E-8
1.260679308E1,-1.630513830E-8
1.262763076E1,-1.340846917E-8
1.264846843E1,-1.085513877E-8
1.266930611E1,-8.129966196E-9
1.269014378E1,-6.012152769E-9
1.271098145E1,-3.434113073E-9
1.273181913E1,-1.189665098E-9
1.275265680E1,1.054520451E-9
1.277349448E1,2.983924609E-9
1.279433215E1,5.156091894E-9
1.281516983E1,7.049566671E-9
1.283600750E1,8.833986381E-9
1.285684518E1,1.050148025E-8
1.287768285E1,1.202568604E-8
1.289852053E1,1.343790886E-8
1.291935820E1,1.470932657E-8
1.294019587E1,1.573866065E-8
1.296103355E1,1.692720018E-8
1.298187122E1,1.789557397E-8
1.300270890E1,1.858764639E-8
1.302354657E1,1.958365033E-8
1.304438425E1,2.035299056E-8
1.306522192E1,2.096982246E-8
1.308605960E1,2.148046854E-8
1.310689727E1,2.197997193E-8
1.312773494E1,2.223180888E-8
1.314857262E1,2.251057373E-8
1.316941029E1,2.257988007E-8
1.319024797E1,2.268252111E-8
1.321108564E1,2.267343483E-8
1.323192332E1,2.253219253E-8
1.325276099E1,2.230812798E-8
1.327359867E1,2.219335208E-8
1.329443634E1,2.184155066E-8
1.331527402E1,2.163170701E-8
1.333611169E1,2.105012894E-8
1.335694936E1,2.039840522E-8
1.337778704E1,1.971949001E-8
1.339862471E1,1.906646052E-8
1.341946239E1,1.775294442E-8
1.344030006E1,1.692429418E-8
1.346113774E1,1.595870780E-8
1.348197541E1,1.515008199E-8
1.350281309E1,1.373184892E-8
1.352365076E1,1.256825536E-8
1.354448844E1,1.154256513E-8
1.356532611E1,1.047575156E-8
1.358616378E1,8.818376432E-9
1.360700146E1,7.935443254E-9
1.362783913E1,6.565756762E-9
1.364867681E1,5.378977669E-9
1.366951448E1,3.980594942E-9
1.369035216E1,2.584909072E-9
1.371118983E1,9.801147037E-10
1.373202751E1,-3.087915709E-10
1.375286518E1,-1.735769320E-9
1.377370285E1,-3.535830620E-9
1.379454053E1,-4.624878585E-9
1.381537820E1,-6.015663969E-9
1.383621588E1,-7.192755561E-9
1.385705355E1,-8.397894442E-9
1.387789123E1,-9.715582330E-9
1.389872890E1,-1.085273599E-8
1.391956658E1,-1.187075654E-8
1.394040425E1,-1.271928274E-8
1.396124193E1,-1.368006876E-8
1.398207960E1,-1.426960314E-8
1.400291727E1,-1.463358644E-8
1.402375495E1,-1.537686461E-8
