"Delay (ms)","Autocorrelation (a.u.)"
0.000000000E0,4.060028975E-7
2.083767452E-2,3.985319287E-7
4.167534903E-2,3.968643451E-7
6.251302355E-2,3.958045225E-7
8.335069806E-2,3.946735737E-7
1.041883726E-1,3.917653568E-7
1.250260471E-1,3.896563123E-7
1.458637216E-1,3.893276175E-7
1.667013961E-1,3.888784832E-7
1.875390706E-1,3.870894253E-7
2.083767452E-1,3.854981342E-7
2.292144197E-1,3.853308744E-7
2.500520942E-1,3.847064421E-7
2.708897687E-1,3.835951732E-7
2.917274432E-1,3.817848506E-7
3.125651177E-1,3.808252942E-7
3.334027922E-1,3.795955178E-7
3.542404668E-1,3.782297054E-7
3.750781413E-1,3.766847306E-7
3.959158158E-1,3.758415461E-7
4.167534903E-1,3.747996644E-7
4.375911648E-1,3.734985485E-7
4.584288393E-1,3.719475867E-7
4.792665139E-1,3.708311257E-7
5.001041884E-1,3.695747717E-7
5.209418629E-1,3.681979410E-7
5.417795374E-1,3.667928319E-7
5.626172119E-1,3.653369874E-7
5.834548864E-1,3.636318937E-7
6.042925610E-1,3.619346743E-7
6.251302355E-1,3.599932718E-7
6.459679100E-1,3.584795142E-7
6.668055845E-1,3.573628089E-7
6.876432590E-1,3.559281610E-7
7.084809335E-1,3.549556412E-7
7.293186080E-1,3.535398219E-7
7.501562826E-1,3.520760992E-7
7.709939571E-1,3.503145521E-7
7.918316316E-1,3.488291977E-7
8.126693061E-1,3.471262823E-7
8.335069806E-1,3.451483418E-7
8.543446551E-1,3.431560669E-7
8.751823297E-1,3.414080189E-7
8.960200042E-1,3.397896250E-7
9.168576787E-1,3.384695685E-7
9.376953532E-1,3.369221489E-7
9.585330277E-1,3.358242633E-7
9.793707022E-1,3.346651730E-7
1.000208377E0,3.331733996E-7
1.021046051E0,3.311879912E-7
1.041883726E0,3.293752670E-7
1.062721400E0,3.277298450E-7
1.083559075E0,3.259258287E-7
1.104396749E0,3.239493845E-7
1.125234424E0,3.220219506E-7
1.146072098E0,3.201386512E-7
1.166909773E0,3.185486390E-7
1.187747447E0,3.165365736E-7
1.208585122E0,3.145802224E-7
1.229422796E0,3.129530653E-7
1.250260471E0,3.114020460E-7
1.271098145E0,3.092773109E-7
1.291935820E0,3.070844539E-7
1.312773494E0,3.049999840E-7
1.333611169E0,3.028546564E-7
1.354448844E0,3.004531202E-7
1.375286518E0,2.982827115E-7
1.396124193E0,2.961495595E-7
1.416961867E0,2.943744941E-7
1.437799542E0,2.923012299E-7
1.458637216E0,2.904220171E-7
1.479474891E0,2.889049673E-7
1.500312565E0,2.872617994E-7
1.521150240E0,2.855340049E-7
1.541987914E0,2.839022375E-7
1.562825589E0,2.820005335E-7
1.583663263E0,2.800611579E-7
1.604500938E0,2.779929855E-7
1.625338612E0,2.759483938E-7
1.646176287E0,2.737360435E-7
1.667013961E0,2.715363704E-7
1.687851636E0,2.692657037E-7
1.708689310E0,2.674688161E-7
1.729526985E0,2.650308699E-7
1.750364659E0,2.632271878E-7
1.771202334E0,2.612137608E-7
1.792040008E0,2.589191345E-7
1.812877683E0,2.565081319E-7
1.833715357E0,2.544451543E-7
1.854553032E0,2.519963964E-7
1.875390706E0,2.501109287E-7
1.896228381E0,2.478227814E-7
1.917066055E0,2.458729182E-7
1.937903730E0,2.439524990E-7
1.958741404E0,2.420912277E-7
1.979579079E0,2.397190657E-7
2.000416753E0,2.376480205E-7
2.021254428E0,2.355040127E-7
2.042092103E0,2.331174482E-7
2.062929777E0,2.306858876E-7
2.083767452E0,2.284962288E-7
2.104605126E0,2.260364879E-7
2.125442801E0,2.236865150E-7
2.146280475E0,2.214043447E-7
2.167118150E0,2.195656433E-7
2.187955824E0,2.172667458E-7
2.208793499E0,2.153261839E-7
2.229631173E0,2.133165284E-7
2.250468848E0,2.110993866E-7
2.271306522E0,2.086676770E-7
2.292144197E0,2.062750428E-7
2.312981871E0,2.036535726E-7
2.333819546E0,2.015355828E-7
2.354657220E0,1.988825747E-7
2.375494895E0,1.964102866E-7
2.396332569E0,1.941347373E-7
2.417170244E0,1.917100877E-7
2.438007918E0,1.892426391E-7
2.458845593E0,1.871413346E-7
2.479683267E0,1.849235377E-7
2.500520942E0,1.828763316E-7
2.521358616E0,1.806966828E-7
2.542196291E0,1.787044372E-7
2.563033965E0,1.766649428E-7
2.583871640E0,1.746253728E-7
2.604709314E0,1.725084323E-7
2.625546989E0,1.702734234E-7
2.646384663E0,1.681658062E-7
2.667222338E0,1.663624784E-7
2.688060013E0,1.641939045E-7
2.708897687E0,1.620902127E-7
2.729735362E0,1.603233215E-7
2.750573036E0,1.586009625E-7
2.771410711E0,1.564075145E-7
2.792248385E0,1.543666169E-7
2.813086060E0,1.521651321E-7
2.833923734E0,1.499597079E-7
2.854761409E0,1.475500167E-7
2.875599083E0,1.456882567E-7
2.896436758E0,1.434534484E-7
2.917274432E0,1.414810895E-7
2.938112107E0,1.393331734E-7
2.958949781E0,1.373900738E-7
2.979787456E0,1.350745706E-7
3.000625130E0,1.328782886E-7
3.021462805E0,1.304881961E-7
3.042300479E0,1.285965568E-7
3.063138154E0,1.263828552E-7
3.083975828E0,1.240823168E-7
3.104813503E0,1.219531969E-7
3.125651177E0,1.200210423E-7
3.146488852E0,1.179770751E-7
3.167326526E0,1.159863284E-7
3.188164201E0,1.139889129E-7
3.209001875E0,1.124593057E-7
3.229839550E0,1.103772638E-7
3.250677224E0,1.083320275E-7
3.271514899E0,1.066098571E-7
3.292352573E0,1.048482232E-7
3.313190248E0,1.027866270E-7
3.334027922E0,1.007118985E-7
3.354865597E0,9.891472871E-8
3.375703272E0,9.710212536E-8
3.396540946E0,9.503888787E-8
3.417378621E0,9.301754970E-8
3.438216295E0,9.132085012E-8
3.459053970E0,8.987905968E-8
3.479891644E0,8.784002145E-8
3.500729319E0,8.638499430E-8
3.521566993E0,8.465040453E-8
3.542404668E0,8.291727813E-8
3.563242342E0,8.085163559E-8
3.584080017E0,7.907246612E-8
3.604917691E0,7.726475097E-8
3.625755366E0,7.528190811E-8
3.646593040E0,7.352394027E-8
3.667430715E0,7.172694404E-8
3.688268389E0,7.018844190E-8
3.709106064E0,6.868393164E-8
3.729943738E0,6.721726462E-8
3.750781413E0,6.577435445E-8
3.771619087E0,6.447357258E-8
3.792456762E0,6.275012728E-8
3.813294436E0,6.102815429E-8
3.834132111E0,5.950477375E-8
3.854969785E0,5.813349817E-8
3.875807460E0,5.675678387E-8
3.896645134E0,5.516990997E-8
3.917482809E0,5.368311330E-8
3.938320483E0,5.250247698E-8
3.959158158E0,5.093182956E-8
3.979995832E0,4.930675101E-8
4.000833507E0,4.788711926E-8
4.021671181E0,4.643028137E-8
4.042508856E0,4.503306582E-8
4.063346531E0,4.302144018E-8
4.084184205E0,4.127575530E-8
4.105021880E0,3.997686471E-8
4.125859554E0,3.849871389E-8
4.146697229E0,3.681406201E-8
4.167534903E0,3.565568477E-8
4.188372578E0,3.448303341E-8
4.209210252E0,3.341560282E-8
4.230047927E0,3.190240718E-8
4.250885601E0,3.080335231E-8
4.271723276E0,2.949647565E-8
4.292560950E0,2.830884102E-8
4.313398625E0,2.696374527E-8
4.334236299E0,2.559311753E-8
4.355073974E0,2.418862393E-8
4.375911648E0,2.290181053E-8
4.396749323E0,2.155294344E-8
4.417586997E0,2.025484506E-8
4.438424672E0,1.923068432E-8
4.459262346E0,1.816525795E-8
4.480100021E0,1.714791343E-8
4.500937695E0,1.605312433E-8
4.521775370E0,1.516086668E-8
4.542613044E0,1.384869758E-8
4.563450719E0,1.242413997E-8
4.584288393E0,1.087207266E-8
4.605126068E0,9.774514150E-9
4.625963742E0,8.145308992E-9
4.646801417E0,7.070075197E-9
4.667639091E0,5.814660393E-9
4.688476766E0,4.859773513E-9
4.709314441E0,3.954354115E-9
4.730152115E0,2.957911453E-9
4.750989790E0,2.042513442E-9
4.771827464E0,1.193747312E-9
4.792665139E0,-1.589565882E-11
4.813502813E0,-1.195696700E-9
4.834340488E0,-2.263880444E-9
4.855178162E0,-3.198553664E-9
4.876015837E0,-4.328426710E-9
4.896853511E0,-5.490212882E-9
4.917691186E0,-6.370091326E-9
4.938528860E0,-7.214229174E-9
4.959366535E0,-8.151011933E-9
4.980204209E0,-9.168657366E-9
5.001041884E0,-9.678606467E-9
5.021879558E0,-1.078916468E-8
5.042717233E0,-1.175840724E-8
5.063554907E0,-1.315296429E-8
5.084392582E0,-1.414563700E-8
5.105230256E0,-1.530374608E-8
5.126067931E0,-1.632534442E-8
5.146905605E0,-1.741939362E-8
5.167743280E0,-1.826943087E-8
5.188580954E0,-1.888389025E-8
5.209418629E0,-1.984167394E-8
5.230256303E0,-2.047701750E-8
5.251093978E0,-2.143024848E-8
5.271931652E0,-2.195234020E-8
5.292769327E0,-2.276618648E-8
5.313607001E0,-2.364616747E-8
5.334444676E0,-2.480179242E-8
5.355282350E0,-2.568650391E-8
5.376120025E0,-2.649799317E-8
5.396957700E0,-2.764906194E-8
5.417795374E0,-2.851754854E-8
5.438633049E0,-2.924545756E-8
5.459470723E0,-2.963957695E-8
5.480308398E0,-3.015806010E-8
5.501146072E0,-3.068313673E-8
5.521983747E0,-3.095851778E-8
5.542821421E0,-3.110255880E-8
5.563659096E0,-3.173831458E-8
5.584496770E0,-3.235914398E-8
5.605334445E0,-3.292968345E-8
5.626172119E0,-3.346285184E-8
5.647009794E0,-3.400592055E-8
5.667847468E0,-3.457843579E-8
5.688685143E0,-3.501974492E-8
5.709522817E0,-3.535568819E-8
5.730360492E0,-3.540487085E-8
5.751198166E0,-3.598705362E-8
5.772035841E0,-3.617064973E-8
5.792873515E0,-3.652897577E-8
5.813711190E0,-3.694926010E-8
5.834548864E0,-3.748367318E-8
5.855386539E0,-3.793052826E-8
5.876224213E0,-3.836954185E-8
5.897061888E0,-3.887081050E-8
5.917899562E0,-3.924505889E-8
5.938737237E0,-3.931790194E-8
5.959574911E0,-3.935859155E-8
5.980412586E0,-3.961556910E-8
6.001250260E0,-3.978080803E-8
6.022087935E0,-3.985115051E-8
6.042925610E0,-4.006999890E-8
6.063763284E0,-4.054816144E-8
6.084600959E0,-4.050943310E-8
6.105438633E0,-4.068621219E-8
6.126276308E0,-4.089097222E-8
6.147113982E0,-4.114626548E-8
6.167951657E0,-4.149120645E-8
6.188789331E0,-4.149835235E-8
6.209627006E0,-4.156259716E-8
6.230464680E0,-4.178702242E-8
6.251302355E0,-4.168061746E-8
6.272140029E0,-4.158348050E-8
6.292977704E0,-4.200165426E-8
6.313815378E0,-4.204868614E-8
6.334653053E0,-4.250091398E-8
6.355490727E0,-4.284249596E-8
6.376328402E0,-4.306278914E-8
6.397166076E0,-4.328380223E-8
6.418003751E0,-4.369213195E-8
6.438841425E0,-4.370248290E-8
6.459679100E0,-4.406089175E-8
6.480516774E0,-4.386967083E-8
6.501354449E0,-4.431522499E-8
6.522192123E0,-4.434066837E-8
6.543029798E0,-4.470306837E-8
6.563867472E0,-4.485860018E-8
6.584705147E0,-4.556086529E-8
6.605542821E0,-4.583590369E-8
6.626380496E0,-4.636498633E-8
6.647218170E0,-4.645742940E-8
6.668055845E0,-4.672661557E-8
6.688893519E0,-4.710196670E-8
6.709731194E0,-4.707837694E-8
6.730568869E0,-4.706850622E-8
6.751406543E0,-4.723320205E-8
6.772244218E0,-4.753949089E-8
6.793081892E0,-4.741689211E-8
6.813919567E0,-4.751827229E-8
6.834757241E0,-4.780129738E-8
6.855594916E0,-4.802133327E-8
6.876432590E0,-4.843981641E-8
6.897270265E0,-4.841126860E-8
6.918107939E0,-4.859323527E-8
6.938945614E0,-4.882511241E-8
6.959783288E0,-4.879120976E-8
6.980620963E0,-4.898423010E-8
7.001458637E0,-4.877989751E-8
7.022296312E0,-4.928121679E-8
7.043133986E0,-4.957967318E-8
7.063971661E0,-4.964089199E-8
7.084809335E0,-4.985144220E-8
7.105647010E0,-5.000673801E-8
7.126484684E0,-5.029517942E-8
7.147322359E0,-5.042118150E-8
7.168160033E0,-5.068267483E-8
7.188997708E0,-5.052827391E-8
7.209835382E0,-5.075268926E-8
7.230673057E0,-5.082055582E-8
7.251510731E0,-5.080373012E-8
7.272348406E0,-5.075885885E-8
7.293186080E0,-5.119867372E-8
7.314023755E0,-5.159723836E-8
7.334861429E0,-5.185444129E-8
7.355699104E0,-5.225291380E-8
7.376536778E0,-5.286020192E-8
7.397374453E0,-5.335504078E-8
7.418212128E0,-5.367804657E-8
7.439049802E0,-5.402048241E-8
7.459887477E0,-5.462913464E-8
7.480725151E0,-5.486267989E-8
7.501562826E0,-5.511730607E-8
7.522400500E0,-5.549876895E-8
7.543238175E0,-5.594629722E-8
7.564075849E0,-5.631174675E-8
7.584913524E0,-5.687177148E-8
7.605751198E0,-5.732537189E-8
7.626588873E0,-5.785038087E-8
7.647426547E0,-5.834075201E-8
7.668264222E0,-5.871787102E-8
7.689101896E0,-5.910798144E-8
7.709939571E0,-5.957521246E-8
7.730777245E0,-5.969990084E-8
7.751614920E0,-5.996766708E-8
7.772452594E0,-6.020168419E-8
7.793290269E0,-6.061950442E-8
7.814127943E0,-6.080052610E-8
7.834965618E0,-6.109446617E-8
7.855803292E0,-6.159278580E-8
7.876640967E0,-6.200476962E-8
7.897478641E0,-6.204849757E-8
7.918316316E0,-6.206211427E-8
7.939153990E0,-6.248860452E-8
7.959991665E0,-6.255439507E-8
7.980829339E0,-6.245870463E-8
8.001667014E0,-6.290434428E-8
8.022504688E0,-6.311477108E-8
8.043342363E0,-6.365338716E-8
8.064180038E0,-6.381976052E-8
8.085017712E0,-6.465789299E-8
8.105855387E0,-6.502557135E-8
8.126693061E0,-6.558812834E-8
8.147530736E0,-6.605884329E-8
8.168368410E0,-6.684246634E-8
8.189206085E0,-6.735974905E-8
8.210043759E0,-6.777009894E-8
8.230881434E0,-6.819416628E-8
8.251719108E0,-6.892146555E-8
8.272556783E0,-6.900269004E-8
8.293394457E0,-6.947641018E-8
8.314232132E0,-6.983416835E-8
8.335069806E0,-7.013938474E-8
8.355907481E0,-7.066851984E-8
8.376745155E0,-7.138424479E-8
8.397582830E0,-7.169425813E-8
8.418420504E0,-7.240037291E-8
8.439258179E0,-7.311909950E-8
8.460095853E0,-7.384493574E-8
8.480933528E0,-7.407247491E-8
8.501771202E0,-7.457684264E-8
8.522608877E0,-7.549503131E-8
8.543446551E0,-7.617582221E-8
8.564284226E0,-7.690169642E-8
8.585121900E0,-7.745449889E-8
8.605959575E0,-7.875991426E-8
8.626797249E0,-7.969539186E-8
8.647634924E0,-8.063639345E-8
8.668472598E0,-8.114891460E-8
8.689310273E0,-8.238433173E-8
8.710147947E0,-8.334741949E-8
8.730985622E0,-8.386728787E-8
8.751823297E0,-8.473461962E-8
8.772660971E0,-8.535989311E-8
8.793498646E0,-8.660895761E-8
8.814336320E0,-8.753730039E-8
8.835173995E0,-8.828239941E-8
8.856011669E0,-8.928562914E-8
8.876849344E0,-9.047094039E-8
8.897687018E0,-9.117909960E-8
8.918524693E0,-9.219305315E-8
8.939362367E0,-9.296989924E-8
8.960200042E0,-9.434297681E-8
8.981037716E0,-9.519570505E-8
9.001875391E0,-9.617845838E-8
9.022713065E0,-9.690958410E-8
9.043550740E0,-9.836054796E-8
9.064388414E0,-9.930202949E-8
9.085226089E0,-1.000802568E-7
9.106063763E0,-1.012379444E-7
9.126901438E0,-1.025481806E-7
9.147739112E0,-1.034855064E-7
9.168576787E0,-1.046520342E-7
9.189414461E0,-1.058947311E-7
9.210252136E0,-1.072737005E-7
9.231089810E0,-1.086462490E-7
9.251927485E0,-1.098169570E-7
9.272765159E0,-1.111120225E-7
9.293602834E0,-1.124113192E-7
9.314440508E0,-1.136827576E-7
9.335278183E0,-1.146853559E-7
9.356115857E0,-1.160283232E-7
9.376953532E0,-1.175419010E-7
9.397791207E0,-1.185728465E-7
9.418628881E0,-1.200198058E-7
9.439466556E0,-1.211698446E-7
9.460304230E0,-1.223369133E-7
9.481141905E0,-1.234114942E-7
9.501979579E0,-1.247037497E-7
9.522817254E0,-1.258505652E-7
9.543654928E0,-1.270922852E-7
9.564492603E0,-1.281178909E-7
9.585330277E0,-1.293233669E-7
9.606167952E0,-1.306631191E-7
9.627005626E0,-1.319906077E-7
9.647843301E0,-1.331119149E-7
9.668680975E0,-1.342509224E-7
9.689518650E0,-1.357208761E-7
9.710356324E0,-1.366396770E-7
9.731193999E0,-1.376180097E-7
9.752031673E0,-1.387595391E-7
9.772869348E0,-1.398732108E-7
9.793707022E0,-1.408318896E-7
9.814544697E0,-1.420252942E-7
9.835382371E0,-1.432625026E-7
9.856220046E0,-1.440784219E-7
9.877057720E0,-1.452124789E-7
9.897895395E0,-1.461810373E-7
9.918733069E0,-1.472598898E-7
9.939570744E0,-1.481451351E-7
9.960408418E0,-1.493835376E-7
9.981246093E0,-1.501770045E-7
1.000208377E1,-1.510247347E-7
1.002292144E1,-1.517891915E-7
1.004375912E1,-1.529072924E-7
1.006459679E1,-1.538699359E-7
1.008543447E1,-1.549521380E-7
1.010627214E1,-1.560197334E-7
1.012710981E1,-1.573103999E-7
1.014794749E1,-1.582786278E-7
1.016878516E1,-1.592200909E-7
1.018962284E1,-1.603140788E-7
1.021046051E1,-1.615976478E-7
1.023129819E1,-1.626589782E-7
1.025213586E1,-1.635340180E-7
1.027297354E1,-1.646823522E-7
1.029381121E1,-1.657602783E-7
1.031464889E1,-1.667363788E-7
1.033548656E1,-1.679407865E-7
1.035632423E1,-1.692206409E-7
1.037716191E1,-1.703885175E-7
1.039799958E1,-1.714586297E-7
1.041883726E1,-1.726615741E-7
1.043967493E1,-1.738258668E-7
1.046051261E1,-1.750684921E-7
1.048135028E1,-1.760730674E-7
1.050218796E1,-1.770874322E-7
1.052302563E1,-1.782766078E-7
1.054386330E1,-1.796313900E-7
1.056470098E1,-1.805177795E-7
1.058553865E1,-1.816098550E-7
1.060637633E1,-1.830069478E-7
1.062721400E1,-1.842705294E-7
1.064805168E1,-1.850152963E-7
1.066888935E1,-1.860757744E-7
1.068972703E1,-1.869929321E-7
1.071056470E1,-1.879807038E-7
1.073140238E1,-1.883608058E-7
1.075224005E1,-1.891173968E-7
1.077307772E1,-1.900706953E-7
1.079391540E1,-1.909198228E-7
1.081475307E1,-1.917854456E-7
1.083559075E1,-1.925972908E-7
1.085642842E1,-1.935986530E-7
1.087726610E1,-1.949686148E-7
1.089810377E1,-1.956711560E-7
1.091894145E1,-1.965295367E-7
1.093977912E1,-1.979455875E-7
1.096061680E1,-1.989103676E-7
1.098145447E1,-1.996646186E-7
1.100229214E1,-2.005598368E-7
1.102312982E1,-2.016244686E-7
1.104396749E1,-2.026322365E-7
1.106480517E1,-2.035416504E-7
1.108564284E1,-2.044148310E-7
1.110648052E1,-2.054818008E-7
1.112731819E1,-2.067520834E-7
1.114815587E1,-2.074434235E-7
1.116899354E1,-2.085516058E-7
1.118983121E1,-2.099023688E-7
1.121066889E1,-2.108610894E-7
1.123150656E1,-2.118171999E-7
1.125234424E1,-2.126076079E-7
1.127318191E1,-2.135807593E-7
1.129401959E1,-2.147964941E-7
1.131485726E1,-2.155310588E-7
1.133569494E1,-2.167500114E-7
1.135653261E1,-2.178110699E-7
1.137737029E1,-2.187060225E-7
1.139820796E1,-2.194665041E-7
1.141904563E1,-2.204253481E-7
1.143988331E1,-2.212845222E-7
1.146072098E1,-2.220264252E-7
1.148155866E1,-2.225385319E-7
1.150239633E1,-2.233192269E-7
1.152323401E1,-2.242489677E-7
1.154407168E1,-2.249225174E-7
1.156490936E1,-2.255253011E-7
1.158574703E1,-2.266047830E-7
1.160658471E1,-2.277846444E-7
1.162742238E1,-2.282616304E-7
1.164826005E1,-2.290170743E-7
1.166909773E1,-2.298038453E-7
1.168993540E1,-2.307726822E-7
1.171077308E1,-2.313547677E-7
1.173161075E1,-2.316720406E-7
1.175244843E1,-2.323227694E-7
1.177328610E1,-2.329606110E-7
1.179412378E1,-2.333961681E-7
1.181496145E1,-2.337971686E-7
1.183579912E1,-2.346255082E-7
1.185663680E1,-2.351929584E-7
1.187747447E1,-2.356737095E-7
1.189831215E1,-2.361943280E-7
1.191914982E1,-2.368691650E-7
1.193998750E1,-2.370291965E-7
1.196082517E1,-2.377715457E-7
1.198166285E1,-2.385611982E-7
1.200250052E1,-2.388277966E-7
1.202333820E1,-2.390504141E-7
1.204417587E1,-2.398464453E-7
1.206501354E1,-2.405932096E-7
1.208585122E1,-2.409867783E-7
1.210668889E1,-2.419970741E-7
1.212752657E1,-2.426492742E-7
1.214836424E1,-2.433786393E-7
1.216920192E1,-2.439219091E-7
1.219003959E1,-2.442789513E-7
1.221087727E1,-2.446109681E-7
1.223171494E1,-2.448617927E-7
1.225255262E1,-2.454817720E-7
1.227339029E1,-2.459317492E-7
1.229422796E1,-2.464520659E-7
1.231506564E1,-2.468257070E-7
1.233590331E1,-2.473918544E-7
1.235674099E1,-2.480040955E-7
1.237757866E1,-2.484543216E-7
1.239841634E1,-2.487663370E-7
1.241925401E1,-2.497665807E-7
1.244009169E1,-2.501377769E-7
1.246092936E1,-2.506425758E-7
1.248176703E1,-2.510908621E-7
1.250260471E1,-2.517841668E-7
1.252344238E1,-2.518075333E-7
1.254428006E1,-2.521736678E-7
1.256511773E1,-2.525819162E-7
1.258595541E1,-2.532065433E-7
1.260679308E1,-2.532804449E-7
1.262763076E1,-2.534114514E-7
1.264846843E1,-2.539452124E-7
1.266930611E1,-2.539866846E-7
1.269014378E1,-2.542575072E-7
1.271098145E1,-2.543948733E-7
1.273181913E1,-2.544724993E-7
1.275265680E1,-2.544576528E-7
1.277349448E1,-2.546894762E-7
1.279433215E1,-2.545649893E-7
1.281516983E1,-2.548590374E-7
1.283600750E1,-2.552747609E-7
1.285684518E1,-2.554056980E-7
1.287768285E1,-2.553088778E-7
1.289852053E1,-2.556310063E-7
1.291935820E1,-2.554784926E-7
1.294019587E1,-2.553011686E-7
1.296103355E1,-2.551108310E-7
1.298187122E1,-2.547861776E-7
1.300270890E1,-2.545704244E-7
1.302354657E1,-2.539963155E-7
1.304438425E1,-2.536301068E-7
1.306522192E1,-2.534576644E-7
1.308605960E1,-2.534494379E-7
1.310689727E1,-2.534050352E-7
1.312773494E1,-2.532388917E-7
1.314857262E1,-2.532049166E-7
1.316941029E1,-2.532138269E-7
1.319024797E1,-2.529040312E-7
1.321108564E1,-2.524185974E-7
1.323192332E1,-2.522895835E-7
1.325276099E1,-2.522624968E-7
1.327359867E1,-2.517823757E-7
1.329443634E1,-2.514051810E-7
1.331527402E1,-2.510839842E-7
1.333611169E1,-2.505181608E-7
1.335694936E1,-2.501600958E-7
1.337778704E1,-2.498394877E-7
1.339862471E1,-2.494723497E-7
1.341946239E1,-2.490902450E-7
1.344030006E1,-2.483468588E-7
1.346113774E1,-2.478259684E-7
1.348197541E1,-2.471523352E-7
1.350281309E1,-2.462246863E-7
1.352365076E1,-2.453526806E-7
1.354448844E1,-2.446898585E-7
1.356532611E1,-2.440630808E-7
1.358616378E1,-2.431068498E-7
1.360700146E1,-2.426015582E-7
1.362783913E1,-2.418473557E-7
1.364867681E1,-2.412590568E-7
1.366951448E1,-2.403926953E-7
1.369035216E1,-2.396942865E-7
1.371118983E1,-2.390002622E-7
1.373202751E1,-2.382460786E-7
1.375286518E1,-2.371552198E-7
1.377370285E1,-2.363869503E-7
1.379454053E1,-2.355775726E-7
1.381537820E1,-2.347178269E-7
1.383621588E1,-2.338385256E-7
1.385705355E1,-2.331317750E-7
1.387789123E1,-2.323703892E-7
1.389872890E1,-2.316498717E-7
1.391956658E1,-2.308327629E-7
1.394040425E1,-2.300308143E-7
1.396124193E1,-2.289479531E-7
